#{
#    "background_file": "Backgrounds\\\\bg_787.999nm_16bin_197st_244en_10.0s_110g_4x_1_seq.txt",
#    "ccd_image_settings": [
#        1,
#        16,
#        1,
#        1600,
#        197,
#        244
#    ],
#    "ccd_temperature": "-88",
#    "cdRatios": {
#        "mean": 0.9220726727317676,
#        "std": 0.007950268401522832
#    },
#    "center_lambda": 788.0,
#    "comments": "",
#    "dark_region": 0.2608145601416858,
#    "date": "11/17/19 13:48:46PM",
#    "eff_field": 1.5,
#    "exposure": 10.0,
#    "fel_lambda": "15.0",
#    "fel_pol": "H",
#    "fel_pulses": 40,
#    "fel_pyro_cal": "0.017",
#    "fel_reprate": "1.07",
#    "fel_transmission": "1.0",
#    "fel_transmission_fits": {
#        "A": 1.0,
#        "C": 0.0,
#        "Mu": 0.0
#    },
#    "fieldInt": {
#        "mean": 9743.753477272729,
#        "std": 434.7253639289518
#    },
#    "fieldStrength": {
#        "mean": 45.276931818181815,
#        "std": 1.0161155002424278
#    },
#    "fpTime": {
#        "mean": 1.2052462438280758,
#        "std": 0.08581095054633774
#    },
#    "gain": 110,
#    "grating": 3,
#    "images_in_sequence": [
#        "hsg_SpotD_crystal16_a90_HAna9.txt",
#        "hsg_SpotD_crystal16_a90_HAna10.txt",
#        "hsg_SpotD_crystal16_a90_HAna11.txt",
#        "hsg_SpotD_crystal16_a90_HAna12.txt"
#    ],
#    "nir_lambda": "820.9918",
#    "nir_pola": "90",
#    "nir_polg": "0",
#    "nir_power": "100.0",
#    "pulseEnergies": {
#        "mean": 2.1203863636363636,
#        "std": 0.11039445559749222
#    },
#    "pyroVoltage": {
#        "mean": 0.1353528703009138,
#        "std": 0.008088837628565652
#    },
#    "rotatorAngle": 22.499996337881683,
#    "sample_Temp": "58",
#    "sample_name": "L001218.C3",
#    "series": "SpotD_16_90",
#    "slits": "60",
#    "spec_step": "",
#    "window_trans": 0.92,
#    "y_max": 2,
#    "y_min": 1
#}
#
#
#
#
#
#
#
#
#
#
#
#
#
#
#
#
#
#
#
#
#
#
#
#
#
#
Wavelength,Signal,error
nm,arb. u.,arb.u.
Wavelength,SpotD_16_90,error
761.200217,0.075000,0.041458
761.233859,-0.050000,0.114564
761.267500,0.125000,0.096014
761.301141,-0.250000,0.082916
761.334781,0.025000,0.073951
761.368422,-0.350000,0.025000
761.402062,0.175000,0.096014
761.435702,-0.025000,0.188331
761.469342,-0.250000,0.055902
761.502981,0.200000,0.203101
761.536620,-0.025000,0.108253
761.570259,-0.075000,0.054486
761.603898,-0.400000,0.035355
761.637537,-0.025000,0.188331
761.671175,0.050000,0.246221
761.704813,0.300000,0.162019
761.738451,0.025000,0.021651
761.772088,0.125000,0.170935
761.805726,-0.275000,0.073951
761.839363,-0.175000,0.073951
761.873000,-0.500000,0.061237
761.906636,-0.100000,0.035355
761.940273,-0.025000,0.073951
761.973909,0.200000,0.035355
762.007545,0.375000,0.134048
762.041180,-0.425000,0.054486
762.074816,-0.025000,0.143069
762.108451,0.225000,0.041458
762.142086,0.275000,0.113880
762.175720,0.100000,0.050000
762.209355,-0.000000,0.093541
762.242989,0.225000,0.041458
762.276623,0.175000,0.089268
762.310257,0.225000,0.201168
762.343890,-0.350000,0.082916
762.377524,0.000000,0.154110
762.411157,-0.125000,0.041458
762.444789,-0.025000,0.041458
762.478422,0.125000,0.081968
762.512054,0.150000,0.090139
762.545686,0.300000,0.093541
762.579318,0.225000,0.124373
762.612950,0.025000,0.054486
762.646581,-0.225000,0.151554
762.680212,0.050000,0.075000
762.713843,0.200000,0.061237
762.747474,0.425000,0.216145
762.781104,-0.075000,0.041458
762.814734,-0.075000,0.191621
762.848364,0.075000,0.113880
762.881994,-0.025000,0.054486
762.915623,0.275000,0.184983
762.949252,-0.125000,0.041458
762.982881,0.150000,0.143614
763.016510,0.050000,0.043301
763.050139,-0.075000,0.021651
763.083767,0.425000,0.170935
763.117395,0.050000,0.043301
763.151023,0.250000,0.082916
763.184650,0.025000,0.021651
763.218277,-0.225000,0.119242
763.251904,0.000000,0.111803
763.285531,0.400000,0.434454
763.319158,-0.025000,0.073951
763.352784,-0.100000,0.061237
763.386410,-0.200000,0.111803
763.420036,-0.150000,0.219374
763.453661,0.425000,0.279229
763.487287,0.025000,0.113880
763.520912,-0.275000,0.461485
763.554537,0.225000,0.167239
763.588161,-0.075000,0.108253
763.621786,0.225000,0.207289
763.655410,-0.100000,0.070711
763.689034,-0.300000,0.061237
763.722657,0.625000,0.290205
763.756281,-0.025000,0.081968
763.789904,0.050000,0.167705
763.823527,-0.100000,0.145774
763.857150,-0.175000,0.073951
763.890772,-0.100000,0.234521
763.924394,-0.075000,0.064952
763.958016,0.025000,0.113880
763.991638,0.275000,0.073951
764.025260,0.075000,0.073951
764.058881,0.025000,0.021651
764.092502,-0.200000,0.127475
764.126123,0.100000,0.106066
764.159743,-0.050000,0.055902
764.193363,-0.075000,0.096014
764.226983,0.100000,0.000000
764.260603,0.250000,0.043301
764.294223,-0.075000,0.081968
764.327842,0.000000,0.035355
764.361461,0.275000,0.073951
764.395080,-0.175000,0.089268
764.428699,-0.125000,0.143069
764.462317,0.075000,0.064952
764.495935,0.000000,0.079057
764.529553,0.100000,0.093541
764.563170,0.225000,0.113880
764.596788,0.325000,0.230149
764.630405,0.000000,0.162019
764.664022,-0.175000,0.021651
764.697638,0.275000,0.167239
764.731255,-0.025000,0.064952
764.764871,0.825000,0.522464
764.798487,-0.175000,0.021651
764.832103,-0.000000,0.093541
764.865718,0.075000,0.041458
764.899333,0.300000,0.145774
764.932948,-0.075000,0.108253
764.966563,-0.275000,0.096014
765.000177,0.075000,0.041458
765.033792,0.025000,0.089268
765.067406,-0.025000,0.064952
765.101019,0.225000,0.224653
765.134633,-0.225000,0.143069
765.168246,-0.050000,0.055902
765.201859,0.250000,0.258602
765.235472,0.675000,0.368061
765.269084,0.175000,0.021651
765.302697,-0.175000,0.119242
765.336309,0.025000,0.089268
765.369920,0.275000,0.147373
765.403532,0.150000,0.175000
765.437143,-0.150000,0.025000
765.470754,0.125000,0.041458
765.504365,0.150000,0.090139
765.537976,0.525000,0.368061
765.571586,-0.250000,0.055902
765.605196,-0.250000,0.103078
765.638806,-0.150000,0.043301
765.672416,0.350000,0.175000
765.706025,-0.050000,0.043301
765.739634,0.125000,0.108253
765.773243,0.225000,0.174553
765.806851,0.050000,0.075000
765.840460,0.175000,0.064952
765.874068,-0.025000,0.021651
765.907676,0.050000,0.175000
765.941284,0.100000,0.035355
765.974891,0.550000,0.175000
766.008498,0.100000,0.176777
766.042105,0.075000,0.124373
766.075712,-0.150000,0.103078
766.109318,0.025000,0.073951
766.142924,-0.075000,0.064952
766.176530,-0.525000,0.064952
766.210136,-0.175000,0.108253
766.243741,0.625000,0.219018
766.277347,0.100000,0.220794
766.310951,-0.200000,0.035355
766.344556,0.150000,0.082916
766.378161,0.100000,0.035355
766.411765,-0.100000,0.035355
766.445369,0.300000,0.169558
766.478973,-0.200000,0.079057
766.512576,0.125000,0.073951
766.546179,-0.075000,0.054486
766.579782,-0.075000,0.054486
766.613385,-0.050000,0.090139
766.646988,-0.350000,0.103078
766.680590,-0.025000,0.054486
766.714192,0.100000,0.035355
766.747794,0.075000,0.054486
766.781395,0.375000,0.073951
766.814996,-0.450000,0.055902
766.848597,-0.050000,0.055902
766.882198,0.350000,0.219374
766.915799,0.000000,0.050000
766.949399,0.150000,0.082916
766.982999,0.000000,0.070711
767.016599,0.375000,0.263095
767.050198,0.225000,0.064952
767.083798,0.100000,0.061237
767.117397,0.225000,0.143069
767.150996,-0.125000,0.073951
767.184594,-0.450000,0.025000
767.218193,-0.050000,0.055902
767.251791,-0.125000,0.064952
767.285389,0.350000,0.532095
767.318986,0.175000,0.108253
767.352583,0.075000,0.064952
767.386181,0.250000,0.178536
767.419777,-0.175000,0.073951
767.453374,0.275000,0.178098
767.486970,0.100000,0.291548
767.520567,0.175000,0.216145
767.554162,-0.075000,0.054486
767.587758,0.050000,0.055902
767.621353,0.250000,0.025000
767.654949,-0.075000,0.054486
767.688543,0.025000,0.041458
767.722138,0.000000,0.035355
767.755732,0.000000,0.035355
767.789327,-0.250000,0.025000
767.822921,-0.200000,0.035355
767.856514,-0.275000,0.073951
767.890108,0.225000,0.138632
767.923701,0.175000,0.238157
767.957294,0.325000,0.167239
767.990886,0.075000,0.041458
768.024479,-0.125000,0.064952
768.058071,0.050000,0.075000
768.091663,-0.050000,0.103078
768.125255,-0.075000,0.081968
768.158846,0.125000,0.054486
768.192437,-0.200000,0.093541
768.226028,-0.125000,0.188331
768.259619,0.125000,0.073951
768.293209,-0.025000,0.054486
768.326799,0.100000,0.000000
768.360389,-0.025000,0.108253
768.393979,-0.075000,0.064952
768.427568,0.150000,0.114564
768.461158,0.125000,0.113880
768.494747,0.025000,0.073951
768.528335,0.075000,0.147373
768.561924,0.175000,0.064952
768.595512,0.250000,0.317214
768.629100,0.225000,0.096014
768.662688,-0.050000,0.103078
768.696275,-0.175000,0.021651
768.729862,-0.100000,0.093541
768.763449,0.150000,0.192029
768.797036,-0.100000,0.061237
768.830623,0.025000,0.041458
768.864209,0.075000,0.073951
768.897795,0.150000,0.075000
768.931381,0.175000,0.102317
768.964966,0.025000,0.191621
768.998551,0.450000,0.182003
769.032136,-0.000000,0.173205
769.065721,-0.125000,0.064952
769.099305,-0.125000,0.073951
769.132890,0.200000,0.150000
769.166474,0.175000,0.102317
769.200057,-0.300000,0.061237
769.233641,-0.050000,0.082916
769.267224,0.125000,0.073951
769.300807,0.250000,0.564026
769.334390,-0.050000,0.134629
769.367972,0.325000,0.096014
769.401555,-0.175000,0.081968
769.435137,-0.025000,0.298695
769.468718,-0.225000,0.096014
769.502300,0.150000,0.182003
769.535881,-0.150000,0.025000
769.569462,-0.250000,0.025000
769.603043,0.050000,0.294746
769.636623,0.250000,0.082916
769.670204,-0.250000,0.055902
769.703784,0.175000,0.113880
769.737364,0.350000,0.192029
769.770943,0.150000,0.108972
769.804522,0.500000,0.520817
769.838101,-0.025000,0.155624
769.871680,0.025000,0.167239
769.905259,-0.300000,0.150000
769.938837,0.075000,0.096014
769.972415,-0.050000,0.025000
770.005993,0.275000,0.129301
770.039570,0.350000,0.143614
770.073147,0.625000,0.599349
770.106724,0.025000,0.064952
770.140301,0.150000,0.103078
770.173878,0.125000,0.054486
770.207454,-0.025000,0.064952
770.241030,0.200000,0.079057
770.274606,0.025000,0.021651
770.308181,0.225000,0.113880
770.341757,-0.150000,0.055902
770.375332,0.050000,0.043301
770.408906,0.000000,0.061237
770.442481,-0.175000,0.089268
770.476055,-0.100000,0.000000
770.509629,0.375000,0.155624
770.543203,-0.150000,0.025000
770.576776,0.025000,0.054486
770.610350,0.150000,0.160078
770.643923,0.075000,0.184983
770.677495,0.000000,0.050000
770.711068,0.150000,0.055902
770.744640,0.000000,0.093541
770.778212,0.225000,0.204252
770.811784,0.025000,0.155624
770.845356,-0.200000,0.070711
770.878927,0.200000,0.061237
770.912498,0.350000,0.143614
770.946069,-0.000000,0.203101
770.979639,-0.025000,0.041458
771.013209,0.075000,0.041458
771.046779,-0.475000,0.021651
771.080349,0.225000,0.204252
771.113919,0.100000,0.106066
771.147488,0.100000,0.035355
771.181057,0.225000,0.155624
771.214626,-0.050000,0.055902
771.248194,0.175000,0.240767
771.281762,-0.075000,0.021651
771.315330,0.050000,0.075000
771.348898,0.375000,0.113880
771.382465,-0.350000,0.082916
771.416033,-0.125000,0.021651
771.449600,0.175000,0.073951
771.483166,0.125000,0.155624
771.516733,0.175000,0.213234
771.550299,0.000000,0.122474
771.583865,0.075000,0.096014
771.617431,-0.125000,0.073951
771.650996,0.225000,0.113880
771.684562,0.000000,0.035355
771.718127,-0.025000,0.021651
771.751691,-0.050000,0.043301
771.785256,-0.150000,0.055902
771.818820,0.200000,0.237171
771.852384,0.150000,0.055902
771.885948,-0.150000,0.055902
771.919511,0.050000,0.364863
771.953074,0.125000,0.129301
771.986637,0.375000,0.147373
772.020200,0.100000,0.035355
772.053762,0.025000,0.073951
772.087325,0.075000,0.064952
772.120887,-0.375000,0.041458
772.154448,0.100000,0.079057
772.188010,0.050000,0.134629
772.221571,-0.300000,0.079057
772.255132,0.075000,0.054486
772.288692,0.125000,0.174553
772.322253,0.075000,0.213234
772.355813,-0.350000,0.090139
772.389373,0.025000,0.178098
772.422933,-0.075000,0.313000
772.456492,0.800000,0.183712
772.490051,0.550000,0.376663
772.523610,0.075000,0.064952
772.557169,-0.025000,0.064952
772.590727,0.150000,0.129904
772.624285,0.225000,0.143069
772.657843,0.150000,0.082916
772.691401,-0.125000,0.041458
772.724958,0.650000,0.349106
772.758515,0.025000,0.081968
772.792072,0.150000,0.114564
772.825629,-0.150000,0.025000
772.859185,0.025000,0.021651
772.892741,-0.225000,0.089268
772.926297,0.300000,0.106066
772.959853,0.050000,0.103078
772.993408,-0.550000,0.167705
773.026963,-0.275000,0.096014
773.060518,0.025000,0.089268
773.094073,-0.250000,0.090139
773.127627,-0.025000,0.064952
773.161181,0.375000,0.119242
773.194735,0.075000,0.081968
773.228289,-0.025000,0.119242
773.261842,0.075000,0.064952
773.295395,0.025000,0.054486
773.328948,0.425000,0.124373
773.362500,0.200000,0.136931
773.396053,0.125000,0.240767
773.429605,0.125000,0.089268
773.463157,0.250000,0.055902
773.496708,0.175000,0.096014
773.530260,-0.275000,0.113880
773.563811,-0.200000,0.000000
773.597361,-0.075000,0.081968
773.630912,0.250000,0.279508
773.664462,0.100000,0.106066
773.698012,0.100000,0.231840
773.731562,0.300000,0.127475
773.765111,0.025000,0.041458
773.798661,0.125000,0.054486
773.832210,0.075000,0.054486
773.865758,0.125000,0.081968
773.899307,-0.050000,0.025000
773.932855,-0.175000,0.064952
773.966403,-0.200000,0.035355
773.999951,0.250000,0.134629
774.033498,0.300000,0.183712
774.067046,0.175000,0.041458
774.100593,0.200000,0.079057
774.134139,0.300000,0.127475
774.167686,0.100000,0.050000
774.201232,0.200000,0.035355
774.234778,0.225000,0.096014
774.268324,-0.075000,0.041458
774.301869,0.325000,0.339807
774.335414,-0.300000,0.050000
774.368959,0.250000,0.103078
774.402504,0.450000,0.332603
774.436048,-0.275000,0.113880
774.469592,0.225000,0.089268
774.503136,0.200000,0.262202
774.536680,-0.025000,0.073951
774.570223,0.100000,0.070711
774.603766,0.125000,0.021651
774.637309,0.200000,0.150000
774.670852,0.075000,0.102317
774.704394,0.000000,0.050000
774.737936,0.025000,0.113880
774.771478,-0.050000,0.195256
774.805020,0.125000,0.108253
774.838561,0.150000,0.163936
774.872102,0.375000,0.155624
774.905643,0.000000,0.061237
774.939183,0.225000,0.081968
774.972724,0.000000,0.079057
775.006264,-0.075000,0.081968
775.039804,0.050000,0.090139
775.073343,-0.400000,0.093541
775.106882,0.000000,0.093541
775.140421,0.150000,0.055902
775.173960,-0.100000,0.262202
775.207499,-0.175000,0.041458
775.241037,0.050000,0.108972
775.274575,0.100000,0.127475
775.308113,-0.025000,0.064952
775.341650,0.150000,0.108972
775.375187,0.000000,0.070711
775.408724,0.025000,0.174553
775.442261,-0.100000,0.150000
775.475798,-0.275000,0.073951
775.509334,0.175000,0.021651
775.542870,0.075000,0.102317
775.576405,-0.125000,0.210283
775.609941,0.125000,0.041458
775.643476,0.125000,0.054486
775.677011,-0.225000,0.188331
775.710546,0.075000,0.021651
775.744080,0.300000,0.079057
775.777614,-0.025000,0.113880
775.811148,-0.100000,0.122474
775.844682,-0.000000,0.176777
775.878215,-0.025000,0.089268
775.911748,0.000000,0.061237
775.945281,0.050000,0.043301
775.978814,-0.200000,0.035355
776.012346,0.000000,0.061237
776.045878,0.050000,0.055902
776.079410,0.125000,0.124373
776.112941,0.150000,0.082916
776.146473,-0.100000,0.093541
776.180004,-0.150000,0.055902
776.213535,0.375000,0.064952
776.247065,0.400000,0.158114
776.280595,-0.025000,0.054486
776.314125,-0.000000,0.086603
776.347655,-0.050000,0.134629
776.381185,-0.100000,0.093541
776.414714,0.475000,0.155624
776.448243,-0.100000,0.127475
776.481772,-0.175000,0.041458
776.515300,-0.025000,0.073951
776.548828,0.050000,0.163936
776.582356,-0.125000,0.073951
776.615884,0.075000,0.102317
776.649411,0.125000,0.041458
776.682938,0.050000,0.055902
776.716465,0.075000,0.041458
776.749992,0.375000,0.194856
776.783518,0.125000,0.198037
776.817044,0.450000,0.134629
776.850570,-0.050000,0.055902
776.884096,0.100000,0.061237
776.917621,-0.075000,0.073951
776.951146,0.275000,0.240767
776.984671,-0.325000,0.155624
777.018196,-0.275000,0.054486
777.051720,0.300000,0.187083
777.085244,0.075000,0.041458
777.118768,-0.425000,0.089268
777.152292,-0.050000,0.075000
777.185815,0.400000,0.127475
777.219338,0.100000,0.061237
777.252861,0.075000,0.240767
777.286383,0.175000,0.300780
777.319905,0.000000,0.061237
777.353427,0.225000,0.170935
777.386949,0.100000,0.061237
777.420471,0.075000,0.096014
777.453992,0.175000,0.119242
777.487513,0.125000,0.073951
777.521033,-0.150000,0.188746
777.554554,0.400000,0.410792
777.588074,-0.075000,0.064952
777.621594,0.200000,0.070711
777.655114,0.225000,0.096014
777.688633,0.125000,0.138632
777.722152,0.050000,0.055902
777.755671,0.000000,0.035355
777.789190,0.000000,0.035355
777.822708,-0.200000,0.079057
777.856226,0.050000,0.090139
777.889744,0.100000,0.061237
777.923261,0.725000,0.270127
777.956779,0.100000,0.061237
777.990296,0.250000,0.246221
778.023812,0.025000,0.113880
778.057329,0.075000,0.021651
778.090845,0.375000,0.143069
778.124361,0.100000,0.035355
778.157877,-0.125000,0.041458
778.191392,-0.200000,0.093541
778.224908,-0.050000,0.043301
778.258423,0.100000,0.093541
778.291937,-0.075000,0.064952
778.325452,0.175000,0.096014
778.358966,0.150000,0.075000
778.392480,0.025000,0.124373
778.425993,-0.200000,0.035355
778.459507,0.275000,0.147373
778.493020,-0.075000,0.064952
778.526533,0.050000,0.147902
778.560045,-0.225000,0.089268
778.593558,-0.175000,0.054486
778.627070,-0.050000,0.103078
778.660582,0.375000,0.276981
778.694093,0.300000,0.106066
778.727605,-0.250000,0.055902
778.761116,-0.100000,0.035355
778.794626,-0.100000,0.086603
778.828137,0.000000,0.000000
778.861647,-0.025000,0.064952
778.895157,0.100000,0.061237
778.928667,0.450000,0.248747
778.962176,0.050000,0.082916
778.995686,0.100000,0.117260
779.029194,0.200000,0.035355
779.062703,0.200000,0.187083
779.096212,0.125000,0.073951
779.129720,0.125000,0.021651
779.163228,-0.250000,0.134629
779.196735,0.250000,0.055902
779.230243,-0.775000,0.021651
779.263750,0.075000,0.064952
779.297257,-0.025000,0.073951
779.330763,0.050000,0.248747
779.364269,0.225000,0.124373
779.397776,0.275000,0.155624
779.431281,0.150000,0.043301
779.464787,0.025000,0.054486
779.498292,-0.050000,0.043301
779.531797,0.100000,0.093541
779.565302,0.100000,0.035355
779.598806,-0.050000,0.075000
779.632311,0.025000,0.073951
779.665814,0.200000,0.035355
779.699318,0.250000,0.075000
779.732822,0.225000,0.108253
779.766325,0.300000,0.093541
779.799828,0.125000,0.102317
779.833330,0.200000,0.093541
779.866833,-0.100000,0.242384
779.900335,0.175000,0.041458
779.933837,0.100000,0.093541
779.967338,-0.100000,0.035355
780.000840,0.050000,0.055902
780.034341,-0.250000,0.075000
780.067841,0.175000,0.073951
780.101342,-0.125000,0.054486
780.134842,0.125000,0.124373
780.168342,-0.000000,0.145774
780.201842,0.175000,0.041458
780.235341,0.650000,0.294746
780.268841,0.175000,0.064952
780.302340,-0.025000,0.081968
780.335838,0.350000,0.167705
780.369337,0.450000,0.422049
780.402835,0.100000,0.061237
780.436333,0.375000,0.108253
780.469830,1.450000,0.529741
780.503328,0.275000,0.073951
780.536825,0.400000,0.093541
780.570322,0.150000,0.114564
780.603818,0.100000,0.070711
780.637315,0.250000,0.114564
780.670811,0.450000,0.279508
780.704306,-0.075000,0.073951
780.737802,0.450000,0.160078
780.771297,-0.150000,0.025000
780.804792,0.150000,0.090139
780.838287,0.025000,0.054486
780.871781,-0.050000,0.134629
780.905276,-0.225000,0.054486
780.938770,-0.125000,0.272431
780.972263,-0.175000,0.041458
781.005757,0.150000,0.055902
781.039250,0.050000,0.075000
781.072743,0.100000,0.070711
781.106235,0.350000,0.213600
781.139728,0.100000,0.035355
781.173220,0.025000,0.021651
781.206712,0.225000,0.089268
781.240203,0.100000,0.086603
781.273694,-0.025000,0.119242
781.307185,0.100000,0.061237
781.340676,0.150000,0.043301
781.374167,-0.100000,0.050000
781.407657,0.175000,0.147373
781.441147,-0.125000,0.054486
781.474636,0.050000,0.055902
781.508126,-0.075000,0.073951
781.541615,-0.025000,0.041458
781.575104,0.125000,0.170935
781.608593,0.050000,0.108972
781.642081,0.075000,0.089268
781.675569,-0.125000,0.041458
781.709057,0.100000,0.127475
781.742544,0.175000,0.102317
781.776032,-0.150000,0.055902
781.809519,-0.025000,0.054486
781.843006,0.300000,0.154110
781.876492,0.100000,0.061237
781.909978,0.375000,0.129301
781.943464,0.275000,0.064952
781.976950,0.150000,0.160078
782.010435,0.150000,0.090139
782.043921,0.075000,0.041458
782.077406,0.125000,0.064952
782.110890,0.100000,0.050000
782.144375,-0.050000,0.055902
782.177859,0.100000,0.070711
782.211343,-0.075000,0.113880
782.244826,0.450000,0.108972
782.278309,0.425000,0.253414
782.311792,0.050000,0.103078
782.345275,0.225000,0.248433
782.378758,0.300000,0.203101
782.412240,-0.075000,0.064952
782.445722,-0.100000,0.106066
782.479204,0.125000,0.108253
782.512685,-0.150000,0.134629
782.546166,0.025000,0.081968
782.579647,-0.150000,0.043301
782.613128,0.100000,0.117260
782.646608,0.150000,0.175000
782.680088,0.025000,0.096014
782.713568,0.025000,0.143069
782.747048,0.175000,0.041458
782.780527,-0.100000,0.122474
782.814006,0.050000,0.075000
782.847485,0.150000,0.143614
782.880963,-0.225000,0.064952
782.914442,0.100000,0.117260
782.947920,0.775000,0.442118
782.981397,-0.100000,0.035355
783.014875,0.300000,0.079057
783.048352,-0.075000,0.096014
783.081829,0.550000,0.476314
783.115306,0.075000,0.073951
783.148782,-0.125000,0.064952
783.182258,-0.175000,0.108253
783.215734,0.000000,0.035355
783.249209,-0.275000,0.041458
783.282685,-0.025000,0.041458
783.316160,-0.075000,0.041458
783.349635,0.100000,0.035355
783.383109,-0.175000,0.073951
783.416583,-0.025000,0.147373
783.450057,0.125000,0.245904
783.483531,-0.075000,0.129301
783.517004,0.125000,0.124373
783.550477,0.000000,0.035355
783.583950,0.175000,0.081968
783.617423,0.325000,0.041458
783.650895,0.225000,0.054486
783.684367,-0.000000,0.127475
783.717839,-0.575000,0.096014
783.751311,-0.125000,0.143069
783.784782,0.125000,0.167239
783.818253,-0.175000,0.054486
783.851724,0.125000,0.089268
783.885194,0.500000,0.196850
783.918665,-0.200000,0.035355
783.952134,0.075000,0.073951
783.985604,0.225000,0.155624
784.019074,0.225000,0.253414
784.052543,0.150000,0.134629
784.086012,-0.075000,0.167239
784.119480,0.500000,0.180278
784.152948,-0.025000,0.119242
784.186416,1.500000,0.662382
784.219884,0.725000,0.369755
784.253352,0.575000,0.138632
784.286819,0.075000,0.108253
784.320286,-0.025000,0.096014
784.353753,-0.025000,0.124373
784.387219,-0.100000,0.061237
784.420685,0.100000,0.070711
784.454151,0.025000,0.089268
784.487617,-0.175000,0.054486
784.521082,0.050000,0.025000
784.554547,0.600000,0.093541
784.588012,0.050000,0.192029
784.621477,0.175000,0.147373
784.654941,0.150000,0.167705
784.688405,0.200000,0.035355
784.721869,0.100000,0.117260
784.755332,-0.175000,0.041458
784.788795,0.075000,0.021651
784.822258,0.350000,0.160078
784.855721,0.000000,0.035355
784.889183,-0.025000,0.073951
784.922646,0.125000,0.283670
784.956107,0.125000,0.089268
784.989569,-0.150000,0.055902
785.023030,-0.075000,0.064952
785.056491,-0.025000,0.064952
785.089952,-0.100000,0.035355
785.123413,0.000000,0.035355
785.156873,-0.200000,0.035355
785.190333,0.200000,0.117260
785.223792,0.025000,0.021651
785.257252,-0.025000,0.054486
785.290711,0.150000,0.305164
785.324170,0.075000,0.096014
785.357629,-0.125000,0.021651
785.391087,0.600000,0.287228
785.424545,-0.050000,0.195256
785.458003,0.025000,0.021651
785.491460,-0.100000,0.061237
785.524918,0.175000,0.041458
785.558375,0.150000,0.075000
785.591831,0.075000,0.041458
785.625288,-0.050000,0.043301
785.658744,0.175000,0.124373
785.692200,-0.025000,0.096014
785.725655,0.150000,0.160078
785.759111,-0.050000,0.075000
785.792566,0.125000,0.054486
785.826021,0.200000,0.122474
785.859475,-0.025000,0.184983
785.892930,0.175000,0.054486
785.926384,0.300000,0.154110
785.959837,0.300000,0.262202
785.993291,0.400000,0.269258
786.026744,0.750000,0.317214
786.060197,0.325000,0.213234
786.093649,0.375000,0.343466
786.127102,0.050000,0.103078
786.160554,0.300000,0.262202
786.194006,0.500000,0.242384
786.227457,0.150000,0.055902
786.260909,0.125000,0.096014
786.294360,-0.075000,0.081968
786.327810,-0.250000,0.043301
786.361261,0.025000,0.073951
786.394711,-0.025000,0.096014
786.428161,0.050000,0.082916
786.461611,0.525000,0.283670
786.495060,0.150000,0.090139
786.528509,-0.025000,0.073951
786.561958,-0.075000,0.041458
786.595407,0.050000,0.055902
786.628855,0.300000,0.122474
786.662303,-0.100000,0.111803
786.695751,0.075000,0.124373
786.729198,0.075000,0.064952
786.762645,0.100000,0.061237
786.796092,0.000000,0.070711
786.829539,0.100000,0.093541
786.862985,-0.250000,0.075000
786.896431,-0.050000,0.075000
786.929877,0.425000,0.129301
786.963323,0.025000,0.054486
786.996768,0.125000,0.096014
787.030213,-0.175000,0.064952
787.063658,-0.200000,0.061237
787.097102,0.175000,0.073951
787.130547,-0.400000,0.079057
787.163991,0.100000,0.183712
787.197434,-0.275000,0.041458
787.230878,0.250000,0.043301
787.264321,0.150000,0.075000
787.297764,0.050000,0.103078
787.331206,0.075000,0.119242
787.364648,0.175000,0.054486
787.398090,0.225000,0.054486
787.431532,0.000000,0.079057
787.464974,0.375000,0.270127
787.498415,0.025000,0.188331
787.531856,0.500000,0.437321
787.565296,-0.325000,0.108253
787.598737,0.250000,0.055902
787.632177,0.250000,0.103078
787.665617,0.025000,0.170935
787.699056,0.050000,0.090139
787.732496,-0.350000,0.103078
787.765935,-0.075000,0.096014
787.799373,0.100000,0.183712
787.832812,0.400000,0.145774
787.866250,0.375000,0.184983
787.899688,0.500000,0.106066
787.933126,0.550000,0.216506
787.966563,0.725000,0.384667
788.000000,0.350000,0.134629
788.033437,0.275000,0.306951
788.066873,-0.100000,0.093541
788.100310,0.250000,0.147902
788.133746,0.100000,0.070711
788.167181,0.125000,0.089268
788.200617,0.050000,0.055902
788.234052,0.075000,0.089268
788.267487,-0.250000,0.055902
788.300921,0.050000,0.114564
788.334356,0.175000,0.096014
788.367790,0.225000,0.041458
788.401224,0.200000,0.035355
788.434657,-0.150000,0.082916
788.468090,-0.025000,0.129301
788.501523,0.125000,0.041458
788.534956,-0.000000,0.086603
788.568389,0.475000,0.276981
788.601821,0.100000,0.106066
788.635253,0.100000,0.035355
788.668684,0.025000,0.081968
788.702116,0.225000,0.138632
788.735547,0.025000,0.119242
788.768977,0.000000,0.117260
788.802408,0.175000,0.129301
788.835838,0.025000,0.089268
788.869268,0.075000,0.096014
788.902698,0.000000,0.000000
788.936127,-0.100000,0.117260
788.969556,0.100000,0.050000
789.002985,0.050000,0.108972
789.036414,0.075000,0.073951
789.069842,-0.150000,0.075000
789.103270,-0.025000,0.064952
789.136698,0.075000,0.102317
789.170125,0.275000,0.096014
789.203552,0.325000,0.174553
789.236979,0.300000,0.093541
789.270406,-0.075000,0.113880
789.303832,0.200000,0.187083
789.337258,-0.025000,0.073951
789.370684,-0.150000,0.025000
789.404110,0.025000,0.174553
789.437535,0.175000,0.108253
789.470960,0.200000,0.117260
789.504385,0.150000,0.075000
789.537809,0.025000,0.021651
789.571233,-0.050000,0.075000
789.604657,0.025000,0.147373
789.638081,0.225000,0.155624
789.671504,0.550000,0.195256
789.704927,0.425000,0.240767
789.738350,1.000000,0.322102
789.771772,1.425000,0.151554
789.805195,-0.175000,0.235518
789.838617,0.550000,0.364863
789.872038,0.175000,0.096014
789.905460,-0.650000,0.043301
789.938881,0.025000,0.021651
789.972302,-0.275000,0.064952
790.005722,0.100000,0.145774
790.039143,0.125000,0.198037
790.072563,0.225000,0.167239
790.105982,0.100000,0.145774
790.139402,0.000000,0.106066
790.172821,-0.350000,0.075000
790.206240,-0.125000,0.021651
790.239658,0.050000,0.055902
790.273077,0.300000,0.079057
790.306495,-0.125000,0.089268
790.339913,0.600000,0.382426
790.373330,0.225000,0.113880
790.406747,-0.050000,0.055902
790.440164,-0.025000,0.073951
790.473581,0.175000,0.102317
790.506997,-0.050000,0.025000
790.540414,-0.125000,0.073951
790.573829,0.825000,0.611734
790.607245,-0.000000,0.093541
790.640660,0.000000,0.061237
790.674075,0.100000,0.035355
790.707490,-0.100000,0.086603
790.740904,0.200000,0.183712
790.774319,0.325000,0.240767
790.807733,-0.025000,0.041458
790.841146,0.125000,0.064952
790.874560,-0.300000,0.035355
790.907973,0.100000,0.061237
790.941385,0.350000,0.175000
790.974798,-0.200000,0.035355
791.008210,0.200000,0.079057
791.041622,0.025000,0.198037
791.075034,0.075000,0.073951
791.108445,0.025000,0.064952
791.141856,0.075000,0.081968
791.175267,-0.100000,0.000000
791.208678,0.225000,0.147373
791.242088,0.075000,0.041458
791.275498,0.225000,0.089268
791.308908,0.425000,0.138632
791.342317,0.175000,0.054486
791.375726,0.175000,0.041458
791.409135,0.025000,0.021651
791.442544,-0.200000,0.154110
791.475952,0.075000,0.119242
791.509360,-0.175000,0.064952
791.542768,0.825000,0.337963
791.576176,1.875000,0.699442
791.609583,1.725000,0.159589
791.642990,1.200000,0.470372
791.676396,1.225000,0.224653
791.709803,0.425000,0.250936
791.743209,0.025000,0.041458
791.776615,0.000000,0.035355
791.810020,0.075000,0.021651
791.843425,-0.050000,0.043301
791.876830,-0.350000,0.114564
791.910235,0.100000,0.035355
791.943640,-0.250000,0.114564
791.977044,-0.200000,0.050000
792.010448,0.050000,0.167705
792.043851,0.000000,0.035355
792.077254,0.225000,0.143069
792.110658,0.375000,0.330483
792.144060,-0.125000,0.064952
792.177463,-0.125000,0.096014
792.210865,-0.050000,0.134629
792.244267,0.200000,0.035355
792.277668,0.050000,0.082916
792.311070,-0.025000,0.089268
792.344471,0.150000,0.055902
792.377872,0.125000,0.081968
792.411272,0.250000,0.225000
792.444672,0.000000,0.035355
792.478072,0.050000,0.108972
792.511472,0.175000,0.178098
792.544871,0.300000,0.070711
792.578271,-0.075000,0.174553
792.611669,0.200000,0.196850
792.645068,0.050000,0.143614
792.678466,-0.275000,0.054486
792.711864,0.300000,0.200000
792.745262,-0.025000,0.129301
792.778659,0.000000,0.154110
792.812056,-0.050000,0.025000
792.845453,0.175000,0.102317
792.878850,0.025000,0.089268
792.912246,0.050000,0.025000
792.945642,0.125000,0.147373
792.979038,0.200000,0.035355
793.012433,0.100000,0.070711
793.045829,-0.150000,0.075000
793.079223,-0.350000,0.055902
793.112618,0.050000,0.114564
793.146012,0.075000,0.129301
793.179406,-0.050000,0.129904
793.212800,0.025000,0.021651
793.246194,0.100000,0.106066
793.279587,0.050000,0.025000
793.312980,0.150000,0.114564
793.346373,0.400000,0.382426
793.379765,0.500000,0.280624
793.413157,1.275000,0.440703
793.446549,2.433333,0.409776
793.479940,1.925000,0.163459
793.513332,2.175000,0.347086
793.546723,3.700000,0.584166
793.580113,0.000000,0.050000
793.613504,-0.050000,0.103078
793.646894,-0.400000,0.079057
793.680284,0.150000,0.025000
793.713673,-0.175000,0.089268
793.747062,0.425000,0.227418
793.780451,-0.200000,0.093541
793.813840,0.075000,0.054486
793.847228,0.100000,0.061237
793.880617,0.375000,0.221853
793.914004,0.000000,0.050000
793.947392,-0.250000,0.043301
793.980779,-0.125000,0.073951
794.014166,-0.300000,0.070711
794.047553,0.125000,0.113880
794.080940,0.200000,0.165831
794.114326,0.125000,0.163459
794.147712,-0.075000,0.054486
794.181097,-0.000000,0.093541
794.214483,0.125000,0.064952
794.247868,0.125000,0.089268
794.281252,0.125000,0.113880
794.314637,-0.350000,0.043301
794.348021,0.150000,0.143614
794.381405,0.075000,0.102317
794.414788,0.000000,0.106066
794.448172,0.250000,0.108972
794.481555,-0.075000,0.041458
794.514938,-0.075000,0.021651
794.548320,-0.225000,0.021651
794.581702,0.075000,0.064952
794.615084,0.325000,0.089268
794.648466,0.000000,0.035355
794.681847,0.475000,0.216145
794.715228,-0.150000,0.192029
794.748609,-0.375000,0.113880
794.781990,-0.150000,0.349106
794.815370,0.850000,0.201556
794.848750,0.150000,0.129904
794.882129,-0.075000,0.167239
794.915509,0.100000,0.127475
794.948888,0.050000,0.481534
794.982267,-0.025000,0.041458
795.015645,-0.150000,0.075000
795.049023,0.275000,0.134048
795.082401,0.075000,0.184983
795.115779,0.225000,0.198037
795.149156,0.125000,0.265460
795.182534,0.225000,0.147373
795.215910,0.425000,0.258300
795.249287,0.275000,0.096014
795.282663,1.100000,0.508675
795.316039,2.700000,0.820823
795.349415,3.850000,0.716327
795.382790,4.650000,0.340037
795.416165,6.425000,0.314990
795.449540,1.325000,0.466871
795.482915,0.625000,0.143069
795.516289,0.300000,0.231840
795.549663,-0.200000,0.079057
795.583037,-0.175000,0.108253
795.616410,0.225000,0.081968
795.649783,-0.275000,0.124373
795.683156,0.075000,0.041458
795.716529,0.275000,0.073951
795.749901,-0.075000,0.054486
795.783273,0.025000,0.041458
795.816645,-0.400000,0.061237
795.850016,0.375000,0.102317
795.883387,0.125000,0.054486
795.916758,0.100000,0.117260
795.950129,-0.125000,0.073951
795.983499,-0.150000,0.075000
796.016869,-0.225000,0.041458
796.050239,-0.400000,0.000000
796.083608,0.075000,0.073951
796.116977,-0.075000,0.073951
796.150346,-0.300000,0.061237
796.183714,0.100000,0.106066
796.217083,0.400000,0.203101
796.250451,0.050000,0.219374
796.283818,0.100000,0.061237
796.317186,0.375000,0.201168
796.350553,0.300000,0.050000
796.383920,0.075000,0.213234
796.417286,0.300000,0.154110
796.450653,-0.225000,0.041458
796.484019,0.225000,0.054486
796.517384,-0.000000,0.093541
796.550750,0.125000,0.143069
796.584115,0.150000,0.025000
796.617480,0.100000,0.070711
796.650844,-0.025000,0.041458
796.684209,-0.050000,0.043301
796.717573,-0.275000,0.073951
796.750936,0.150000,0.055902
796.784300,0.100000,0.061237
796.817663,0.150000,0.114564
796.851026,-0.100000,0.061237
796.884388,-0.175000,0.138632
796.917751,0.125000,0.081968
796.951113,0.000000,0.165831
796.984474,0.025000,0.113880
797.017836,0.000000,0.070711
797.051197,-0.025000,0.081968
797.084558,-0.375000,0.073951
797.117918,0.125000,0.096014
797.151279,0.375000,0.210283
797.184639,0.900000,0.310242
797.217998,2.575000,0.807291
797.251358,5.200000,0.627495
797.284717,6.200000,0.807775
797.318076,3.200000,0.176777
797.351434,0.950000,0.192029
797.384793,0.550000,0.294746
797.418151,0.575000,0.194856
797.451508,0.525000,0.427748
797.484866,0.125000,0.204252
797.518223,0.325000,0.113880
797.551580,0.050000,0.152069
797.584936,-0.075000,0.081968
797.618292,-0.225000,0.041458
797.651648,0.100000,0.070711
797.685004,0.075000,0.113880
797.718360,-0.075000,0.089268
797.751715,0.175000,0.041458
797.785069,0.400000,0.266927
797.818424,-0.125000,0.021651
797.851778,0.100000,0.169558
797.885132,-0.450000,0.055902
797.918486,0.375000,0.354216
797.951839,0.025000,0.041458
797.985192,0.075000,0.096014
798.018545,0.100000,0.035355
798.051898,0.325000,0.143069
798.085250,-0.100000,0.061237
798.118602,-0.075000,0.041458
798.151954,0.075000,0.147373
798.185305,-0.175000,0.041458
798.218656,0.125000,0.170935
798.252007,0.700000,0.377492
798.285357,0.425000,0.064952
798.318708,-0.100000,0.070711
798.352057,-0.025000,0.041458
798.385407,0.175000,0.081968
798.418756,-0.175000,0.054486
798.452106,0.075000,0.089268
798.485454,-0.025000,0.064952
798.518803,0.475000,0.181573
798.552151,0.125000,0.170935
798.585499,0.050000,0.043301
798.618847,0.100000,0.127475
798.652194,-0.100000,0.000000
798.685541,0.425000,0.073951
798.718888,0.250000,0.103078
798.752234,-0.025000,0.143069
798.785580,0.250000,0.075000
798.818926,-0.100000,0.050000
798.852272,-0.225000,0.021651
798.885617,-0.100000,0.215058
798.918962,0.050000,0.025000
798.952307,-0.075000,0.064952
798.985651,0.125000,0.054486
799.018996,0.125000,0.064952
799.052339,1.100000,0.559017
799.085683,1.825000,0.207289
799.119026,7.150000,0.876427
799.152369,8.200000,0.348210
799.185712,13.000000,1.628266
799.219054,8.650000,1.132199
799.252397,3.425000,0.652280
799.285738,0.750000,0.296859
799.319080,0.300000,0.162019
799.352421,0.150000,0.055902
799.385762,0.175000,0.102317
799.419103,0.600000,0.357071
799.452443,0.050000,0.055902
799.485783,-0.075000,0.041458
799.519123,0.000000,0.061237
799.552463,-0.050000,0.108972
799.585802,0.150000,0.134629
799.619141,0.450000,0.419076
799.652480,-0.150000,0.043301
799.685818,-0.050000,0.160078
799.719156,0.475000,0.155624
799.752494,0.175000,0.102317
799.785831,0.200000,0.154110
799.819169,-0.050000,0.043301
799.852506,-0.025000,0.073951
799.885842,0.350000,0.334477
799.919179,-0.250000,0.055902
799.952515,0.275000,0.064952
799.985850,0.025000,0.073951
800.019186,-0.100000,0.106066
800.052521,0.400000,0.176777
800.085856,0.250000,0.402337
800.119191,0.500000,0.176777
800.152525,0.375000,0.201168
800.185859,0.375000,0.119242
800.219193,0.025000,0.102317
800.252526,0.475000,0.304908
800.285859,1.100000,0.668954
800.319192,0.275000,0.054486
800.352525,0.050000,0.025000
800.385857,0.375000,0.134048
800.419189,0.300000,0.079057
800.452521,0.175000,0.054486
800.485852,0.100000,0.070711
800.519183,-0.500000,0.117260
800.552514,-0.175000,0.054486
800.585844,-0.500000,0.237171
800.619175,0.550000,0.125000
800.652505,0.225000,0.170935
800.685834,0.350000,0.075000
800.719164,0.225000,0.064952
800.752493,0.225000,0.129301
800.785821,0.175000,0.073951
800.819150,0.200000,0.318198
800.852478,0.350000,0.125000
800.885806,0.300000,0.145774
800.919134,0.350000,0.043301
800.952461,0.525000,0.433554
800.985788,2.500000,0.491172
801.019115,9.475000,0.832447
801.052441,22.375000,1.789684
801.085767,29.900000,0.093541
801.119093,33.725000,1.210049
801.152419,9.250000,0.017678
801.185744,3.825000,0.496708
801.219069,0.175000,0.198037
801.252394,0.325000,0.170935
801.285718,0.275000,0.119242
801.319042,0.325000,0.207289
801.352366,0.025000,0.155624
801.385690,0.250000,0.103078
801.419013,-0.700000,0.061237
801.452336,-0.150000,0.256174
801.485658,-0.700000,0.300000
801.518981,0.675000,0.235518
801.552303,0.225000,0.124373
801.585625,0.025000,0.073951
801.618946,-0.075000,0.143069
801.652267,-0.250000,0.103078
801.685588,0.025000,0.096014
801.718909,0.525000,0.326678
801.752229,0.275000,0.041458
801.785549,-0.025000,0.021651
801.818869,0.075000,0.021651
801.852188,-0.275000,0.054486
801.885507,0.175000,0.073951
801.918826,0.075000,0.073951
801.952145,-0.025000,0.089268
801.985463,0.200000,0.269258
802.018781,0.575000,0.332368
802.052099,0.325000,0.163459
802.085416,0.650000,0.534439
802.118733,0.100000,0.086603
802.152050,0.000000,0.000000
802.185366,-0.025000,0.124373
802.218683,0.125000,0.167239
802.251999,0.125000,0.102317
802.285314,-0.125000,0.279229
802.318630,0.150000,0.025000
802.351945,0.050000,0.055902
802.385259,0.250000,0.043301
802.418574,0.550000,0.251247
802.451888,0.150000,0.075000
802.485202,0.075000,0.096014
802.518515,-0.050000,0.055902
802.551829,0.175000,0.184983
802.585142,0.375000,0.096014
802.618454,0.250000,0.043301
802.651767,0.100000,0.093541
802.685079,-0.525000,0.201168
802.718391,0.300000,0.176777
802.751702,0.125000,0.113880
802.785013,0.700000,0.419821
802.818324,0.250000,0.075000
802.851635,0.425000,0.134048
802.884945,0.100000,0.154110
802.918255,4.100000,0.749166
802.951565,17.425000,0.624875
802.984874,31.766667,1.697547
803.018184,44.900000,1.760327
803.051492,43.350000,1.683931
803.084801,12.625000,0.399022
803.118109,2.400000,0.574456
803.151417,0.625000,0.563887
803.184725,0.475000,0.096014
803.218032,0.100000,0.050000
803.251339,0.225000,0.041458
803.284646,0.700000,0.127475
803.317953,0.125000,0.167239
803.351259,-0.175000,0.054486
803.384565,-0.025000,0.073951
803.417870,-0.050000,0.055902
803.451176,0.225000,0.096014
803.484481,0.125000,0.143069
803.517786,0.200000,0.093541
803.551090,-0.100000,0.061237
803.584394,0.225000,0.253414
803.617698,-0.150000,0.090139
803.651002,0.325000,0.235518
803.684305,0.400000,0.350000
803.717608,0.075000,0.124373
803.750910,-0.075000,0.124373
803.784213,0.525000,0.240767
803.817515,0.075000,0.054486
803.850817,-0.225000,0.096014
803.884118,0.250000,0.055902
803.917419,0.375000,0.113880
803.950720,0.550000,0.108972
803.984021,0.175000,0.054486
804.017321,0.525000,0.041458
804.050621,0.000000,0.061237
804.083921,0.200000,0.154110
804.117220,0.025000,0.113880
804.150519,0.000000,0.111803
804.183818,-0.050000,0.043301
804.217117,-0.175000,0.230149
804.250415,0.175000,0.041458
804.283713,0.275000,0.113880
804.317011,-0.025000,0.073951
804.350308,0.050000,0.090139
804.383605,0.225000,0.096014
804.416902,0.300000,0.136931
804.450198,0.150000,0.025000
804.483494,0.125000,0.041458
804.516790,0.225000,0.081968
804.550086,0.225000,0.216145
804.583381,-0.225000,0.073951
804.616676,0.275000,0.041458
804.649971,0.250000,0.114564
804.683265,0.225000,0.245904
804.716559,-0.375000,0.081968
804.749853,0.050000,0.055902
804.783146,0.375000,0.308980
804.816440,2.975000,0.491649
804.849732,8.075000,0.548150
804.883025,29.566667,1.319249
804.916317,60.166667,2.795607
804.949609,71.900000,1.273283
804.982901,56.800000,0.710634
805.016192,11.850000,1.170737
805.049484,2.075000,0.230149
805.082774,-0.000000,0.209165
805.116065,0.825000,0.339807
805.149355,0.175000,0.143069
805.182645,0.125000,0.224653
805.215935,0.200000,0.061237
805.249224,0.225000,0.113880
805.282513,0.125000,0.041458
805.315802,0.200000,0.122474
805.349090,0.150000,0.043301
805.382378,0.425000,0.216145
805.415666,0.450000,0.305164
805.448954,0.175000,0.108253
805.482241,0.150000,0.188746
805.515528,0.150000,0.082916
805.548815,0.400000,0.169558
805.582101,0.000000,0.117260
805.615387,0.275000,0.096014
805.648673,0.150000,0.114564
805.681958,0.275000,0.198037
805.715243,0.425000,0.201168
805.748528,0.250000,0.103078
805.781813,-0.025000,0.096014
805.815097,0.550000,0.213600
805.848381,-0.225000,0.184983
805.881665,0.075000,0.119242
805.914948,0.375000,0.248433
805.948231,0.100000,0.154110
805.981514,0.575000,0.423342
806.014796,0.225000,0.073951
806.048079,0.325000,0.096014
806.081360,0.175000,0.096014
806.114642,0.800000,0.434454
806.147923,0.225000,0.194856
806.181204,-0.100000,0.122474
806.214485,-0.225000,0.178098
806.247765,-0.000000,0.127475
806.281046,0.250000,0.055902
806.314325,0.400000,0.209165
806.347605,0.350000,0.225000
806.380884,-0.525000,0.113880
806.414163,0.300000,0.150000
806.447441,0.100000,0.122474
806.480720,-0.025000,0.064952
806.513998,0.175000,0.073951
806.547275,0.025000,0.155624
806.580553,0.450000,0.275000
806.613830,0.175000,0.167239
806.647107,0.675000,0.389511
806.680383,0.350000,0.248747
806.713659,0.625000,0.073951
806.746935,0.450000,0.082916
806.780211,8.325000,0.657053
806.813486,40.333333,1.156683
806.846761,110.300000,2.005929
806.880036,164.100000,2.608879
806.913310,143.125000,1.894853
806.946584,49.733333,3.699550
806.979858,8.300000,1.001249
807.013132,1.333333,0.477406
807.046405,0.875000,0.494185
807.079678,0.300000,0.158114
807.112951,0.225000,0.064952
807.146223,0.100000,0.215058
807.179495,0.425000,0.147373
807.212767,-0.575000,0.073951
807.246038,0.050000,0.114564
807.279309,-0.025000,0.102317
807.312580,0.250000,0.279508
807.345850,0.800000,0.541987
807.379121,0.150000,0.163936
807.412390,0.175000,0.216145
807.445660,0.500000,0.215058
807.478929,0.075000,0.089268
807.512198,0.375000,0.073951
807.545467,-0.125000,0.073951
807.578735,-0.025000,0.108253
807.612004,-0.125000,0.533122
807.645271,0.100000,0.173205
807.678539,-0.300000,0.079057
807.711806,0.125000,0.119242
807.745073,0.025000,0.178098
807.778340,0.400000,0.234521
807.811606,0.600000,0.302076
807.844872,0.025000,0.021651
807.878138,0.400000,0.271570
807.911403,-0.050000,0.055902
807.944668,0.350000,0.055902
807.977933,0.125000,0.255869
808.011197,0.125000,0.167239
808.044462,0.675000,0.238157
808.077725,0.100000,0.158114
808.110989,0.350000,0.238485
808.144252,0.375000,0.129301
808.177515,0.725000,0.232849
808.210778,-0.175000,0.064952
808.244040,0.500000,0.293684
808.277302,0.300000,0.203101
808.310564,0.350000,0.192029
808.343826,0.325000,0.064952
808.377087,0.025000,0.174553
808.410348,0.275000,0.089268
808.443608,0.850000,0.268095
808.476869,-0.175000,0.021651
808.510129,0.125000,0.159589
808.543388,0.325000,0.240767
808.576648,0.825000,0.288043
808.609907,0.125000,0.041458
808.643165,0.350000,0.207666
808.676424,0.200000,0.035355
808.709682,2.800000,0.325960
808.742940,34.825000,2.714630
808.776197,131.733333,4.644127
808.809455,244.575000,6.842731
808.842712,255.225000,3.883841
808.875968,176.766667,2.636601
808.909225,32.666667,0.617792
808.942481,6.375000,0.369755
808.975736,1.250000,0.660965
809.008992,0.325000,0.245904
809.042247,0.225000,0.124373
809.075502,0.200000,0.215058
809.108756,-0.425000,0.245904
809.142011,0.750000,0.201556
809.175265,0.150000,0.182003
809.208518,0.375000,0.041458
809.241772,-0.125000,0.096014
809.275025,0.275000,0.213234
809.308277,0.175000,0.124373
809.341530,0.050000,0.055902
809.374782,0.475000,0.113880
809.408034,0.625000,0.279229
809.441285,0.150000,0.371652
809.474536,-0.425000,0.276981
809.507787,-0.400000,0.079057
809.541038,0.050000,0.075000
809.574288,-0.125000,0.163459
809.607538,-0.200000,0.035355
809.640788,0.125000,0.147373
809.674037,0.175000,0.096014
809.707286,0.375000,0.298695
809.740535,0.375000,0.178098
809.773783,0.525000,0.288043
809.807032,0.525000,0.308980
809.840279,-0.600000,0.154110
809.873527,-0.425000,0.073951
809.906774,0.550000,0.376663
809.940021,0.175000,0.124373
809.973268,0.350000,0.103078
810.006514,0.075000,0.184983
810.039760,0.125000,0.143069
810.073006,0.125000,0.163459
810.106251,0.375000,0.379761
810.139497,0.375000,0.119242
810.172741,0.575000,0.255869
810.205986,0.925000,0.235518
810.239230,-0.175000,0.167239
810.272474,1.175000,0.124373
810.305718,1.375000,0.102317
810.338961,0.675000,0.332368
810.372204,-0.050000,0.279508
810.405447,0.125000,0.219018
810.438689,0.175000,0.227418
810.471931,-0.125000,0.113880
810.505173,-0.250000,0.055902
810.538414,0.350000,0.082916
810.571656,0.425000,0.466871
810.604897,0.625000,0.253414
810.638137,0.675000,0.263095
810.671377,9.150000,1.119431
810.704617,75.033333,3.488792
810.737857,334.025000,4.023583
810.771096,525.225000,1.851477
810.804335,494.450000,14.346886
810.837574,310.025000,6.934459
810.870813,51.825000,3.314245
810.904051,10.150000,1.261200
810.937288,3.750000,0.765261
810.970526,0.425000,0.174553
811.003763,-0.625000,0.073951
811.037000,-0.075000,0.167239
811.070237,-0.025000,0.178098
811.103473,-0.075000,0.155624
811.136709,-0.400000,0.150000
811.169945,-0.275000,0.124373
811.203180,0.300000,0.215058
811.236415,0.275000,0.089268
811.269650,0.500000,0.434454
811.302884,0.825000,0.300780
811.336119,0.275000,0.314990
811.369352,0.025000,0.163459
811.402586,0.550000,0.477624
811.435819,-0.150000,0.846685
811.469052,1.825000,0.958759
811.502285,-3.375000,0.392707
811.535517,-2.366667,0.691315
811.568749,1.050000,0.822724
811.601981,1.050000,0.567340
811.635212,0.300000,0.557898
811.668443,0.550000,0.143614
811.701674,0.225000,0.147373
811.734905,0.225000,0.181573
811.768135,-0.125000,0.188331
811.801365,0.300000,0.237171
811.834594,0.450000,0.283945
811.867824,-0.200000,0.217945
811.901053,0.025000,0.328586
811.934281,-0.325000,0.143069
811.967510,-0.150000,0.182003
812.000738,-0.075000,0.170935
812.033965,0.000000,0.136931
812.067193,-0.425000,0.041458
812.100420,0.350000,0.201556
812.133647,0.025000,0.159589
812.166873,-0.425000,0.443530
812.200099,-0.033333,0.040825
812.233325,0.000000,0.154110
812.266551,-0.150000,0.108972
812.299776,0.425000,0.143069
812.333001,0.475000,0.124373
812.366226,0.000000,0.061237
812.399450,0.225000,0.167239
812.432674,-0.050000,0.055902
812.465898,-0.325000,0.210283
812.499121,0.625000,0.442118
812.532345,0.150000,0.175000
812.565567,0.600000,0.136931
812.598790,1.100000,0.154110
812.632012,2.550000,0.279508
812.665234,20.125000,1.449731
812.698456,101.033333,3.167083
812.731677,223.525000,3.842261
812.764898,231.950000,3.921176
812.798119,149.050000,0.506828
812.831339,29.566667,0.848774
812.864559,3.800000,0.308221
812.897779,2.250000,0.564026
812.930998,0.550000,0.182003
812.964217,0.225000,0.167239
812.997436,0.025000,0.163459
813.030655,0.350000,0.178536
813.063873,0.200000,0.291548
813.097091,0.325000,0.318934
813.130308,-0.525000,0.096014
813.163526,-0.000000,0.093541
813.196743,-0.250000,0.025000
813.229959,0.150000,0.163936
813.263176,0.475000,0.263095
813.296392,-0.075000,0.081968
813.329607,-0.025000,0.163459
813.362823,0.400000,0.407738
813.396038,0.025000,0.054486
813.429253,-0.250000,0.129904
813.462467,-0.300000,0.061237
813.495682,-0.150000,0.114564
813.528895,-0.125000,0.081968
813.562109,0.025000,0.108253
813.595322,-0.050000,0.114564
813.628535,0.125000,0.054486
813.661748,-0.025000,0.089268
813.694960,0.025000,0.113880
813.728172,0.325000,0.248433
813.761384,-0.050000,0.043301
813.794596,-0.450000,0.125000
813.827807,-0.350000,0.103078
813.861017,-0.125000,0.124373
813.894228,-0.075000,0.041458
813.927438,0.550000,0.201556
813.960648,0.025000,0.041458
813.993858,-0.200000,0.035355
814.027067,0.325000,0.143069
814.060276,-0.200000,0.035355
814.093485,-0.175000,0.081968
814.126693,-0.125000,0.119242
814.159901,-0.375000,0.041458
814.193109,-0.525000,0.054486
814.226316,0.675000,0.265460
814.259523,-0.175000,0.021651
814.292730,0.050000,0.025000
814.325936,0.325000,0.064952
814.359143,0.250000,0.182003
814.392348,0.250000,0.143614
814.425554,0.150000,0.175000
814.458759,0.550000,0.292617
814.491964,-0.150000,0.134629
814.525169,0.550000,0.201556
814.558373,0.250000,0.265754
814.591577,-0.125000,0.054486
814.624781,0.125000,0.113880
814.657984,0.950000,0.368273
