#{
#    "background_file": "Backgrounds\\\\bg_787.999nm_16bin_197st_244en_10.0s_110g_4x_1_seq.txt",
#    "ccd_image_settings": [
#        1,
#        16,
#        1,
#        1600,
#        197,
#        244
#    ],
#    "ccd_temperature": "-88",
#    "cdRatios": {
#        "mean": 0.9206112177607724,
#        "std": 0.008449899026489311
#    },
#    "center_lambda": 788.0,
#    "comments": "",
#    "dark_region": 0.28996100203991754,
#    "date": "11/17/19 13:58:40PM",
#    "eff_field": 1.5,
#    "exposure": 10.0,
#    "fel_lambda": "15.0",
#    "fel_pol": "H",
#    "fel_pulses": 40,
#    "fel_pyro_cal": "0.017",
#    "fel_reprate": "1.07",
#    "fel_transmission": "1.0",
#    "fel_transmission_fits": {
#        "A": 1.0,
#        "C": 0.0,
#        "Mu": 0.0
#    },
#    "fieldInt": {
#        "mean": 9625.513227272728,
#        "std": 429.9075123881
#    },
#    "fieldStrength": {
#        "mean": 45.00213636363637,
#        "std": 1.0150513262556733
#    },
#    "fpTime": {
#        "mean": 1.2135474868298313,
#        "std": 0.0882431919558731
#    },
#    "gain": 110,
#    "grating": 3,
#    "images_in_sequence": [
#        "hsg_SpotD_crystal16_a90_HAna57.txt",
#        "hsg_SpotD_crystal16_a90_HAna58.txt",
#        "hsg_SpotD_crystal16_a90_HAna59.txt",
#        "hsg_SpotD_crystal16_a90_HAna60.txt"
#    ],
#    "nir_lambda": "820.9918",
#    "nir_pola": "90",
#    "nir_polg": "0",
#    "nir_power": "100.0",
#    "pulseEnergies": {
#        "mean": 2.0977500000000004,
#        "std": 0.11004003351168477
#    },
#    "pyroVoltage": {
#        "mean": 0.1341162824477411,
#        "std": 0.008123933497643123
#    },
#    "rotatorAngle": 292.49999633788167,
#    "sample_Temp": "58",
#    "sample_name": "L001218.C3",
#    "series": "SpotD_16_90",
#    "slits": "60",
#    "spec_step": "",
#    "window_trans": 0.92,
#    "y_max": 2,
#    "y_min": 1
#}
#
#
#
#
#
#
#
#
#
#
#
#
#
#
#
#
#
#
#
#
#
#
#
#
#
#
Wavelength,Signal,error
nm,arb. u.,arb.u.
Wavelength,SpotD_16_90,error
761.200217,-0.050000,0.043301
761.233859,0.050000,0.055902
761.267500,0.200000,0.111803
761.301141,-0.125000,0.054486
761.334781,0.175000,0.041458
761.368422,-0.150000,0.216506
761.402062,0.050000,0.055902
761.435702,-0.325000,0.073951
761.469342,-0.075000,0.054486
761.502981,0.050000,0.108972
761.536620,-0.200000,0.061237
761.570259,-0.050000,0.082916
761.603898,-0.025000,0.081968
761.637537,0.025000,0.147373
761.671175,0.200000,0.122474
761.704813,0.100000,0.086603
761.738451,0.075000,0.041458
761.772088,-0.025000,0.073951
761.805726,-0.175000,0.124373
761.839363,-0.200000,0.070711
761.873000,-0.475000,0.113880
761.906636,0.150000,0.175000
761.940273,0.125000,0.021651
761.973909,0.150000,0.160078
762.007545,0.275000,0.064952
762.041180,-0.025000,0.248433
762.074816,-0.075000,0.054486
762.108451,0.025000,0.021651
762.142086,0.225000,0.041458
762.175720,0.250000,0.075000
762.209355,-0.075000,0.054486
762.242989,0.275000,0.155624
762.276623,0.125000,0.064952
762.310257,-0.050000,0.075000
762.343890,-0.350000,0.075000
762.377524,0.150000,0.204634
762.411157,-0.075000,0.041458
762.444789,0.275000,0.124373
762.478422,0.275000,0.213234
762.512054,0.225000,0.147373
762.545686,0.350000,0.201556
762.579318,0.300000,0.165831
762.612950,0.325000,0.155624
762.646581,-0.250000,0.075000
762.680212,0.300000,0.209165
762.713843,0.175000,0.155624
762.747474,0.100000,0.141421
762.781104,-0.200000,0.061237
762.814734,-0.500000,0.035355
762.848364,-0.325000,0.102317
762.881994,-0.100000,0.061237
762.915623,0.050000,0.025000
762.949252,-0.175000,0.041458
762.982881,0.150000,0.103078
763.016510,0.075000,0.089268
763.050139,-0.150000,0.125000
763.083767,0.125000,0.143069
763.117395,0.325000,0.163459
763.151023,0.725000,0.524851
763.184650,0.125000,0.021651
763.218277,-0.100000,0.035355
763.251904,0.000000,0.079057
763.285531,0.225000,0.089268
763.319158,0.250000,0.175000
763.352784,-0.125000,0.129301
763.386410,-0.075000,0.201168
763.420036,0.375000,0.279229
763.453661,0.500000,0.388909
763.487287,-0.300000,0.217945
763.520912,-0.425000,0.096014
763.554537,-0.133333,0.054006
763.588161,-0.050000,0.055902
763.621786,0.100000,0.035355
763.655410,0.350000,0.134629
763.689034,-0.375000,0.124373
763.722657,0.225000,0.313000
763.756281,0.075000,0.041458
763.789904,-0.075000,0.041458
763.823527,-0.125000,0.041458
763.857150,-0.200000,0.035355
763.890772,0.050000,0.178536
763.924394,0.125000,0.113880
763.958016,0.600000,0.262202
763.991638,0.375000,0.108253
764.025260,-0.100000,0.035355
764.058881,0.175000,0.155624
764.092502,-0.400000,0.086603
764.126123,0.175000,0.096014
764.159743,0.075000,0.041458
764.193363,-0.050000,0.103078
764.226983,0.475000,0.155624
764.260603,0.300000,0.127475
764.294223,0.375000,0.227418
764.327842,0.325000,0.216145
764.361461,0.100000,0.145774
764.395080,0.175000,0.129301
764.428699,0.025000,0.265460
764.462317,0.150000,0.055902
764.495935,0.200000,0.262202
764.529553,-0.175000,0.096014
764.563170,0.075000,0.041458
764.596788,0.150000,0.043301
764.630405,-0.100000,0.145774
764.664022,-0.175000,0.054486
764.697638,0.275000,0.096014
764.731255,0.150000,0.090139
764.764871,0.075000,0.129301
764.798487,-0.050000,0.075000
764.832103,0.300000,0.169558
764.865718,0.275000,0.151554
764.899333,-0.100000,0.079057
764.932948,-0.225000,0.041458
764.966563,-0.100000,0.079057
765.000177,0.275000,0.124373
765.033792,0.075000,0.021651
765.067406,0.075000,0.096014
765.101019,0.075000,0.081968
765.134633,-0.475000,0.073951
765.168246,0.025000,0.073951
765.201859,0.225000,0.054486
765.235472,0.225000,0.054486
765.269084,0.325000,0.170935
765.302697,-0.375000,0.054486
765.336309,0.075000,0.054486
765.369920,0.100000,0.050000
765.403532,-0.225000,0.129301
765.437143,-0.225000,0.073951
765.470754,0.450000,0.160078
765.504365,0.225000,0.184983
765.537976,0.050000,0.134629
765.571586,0.125000,0.174553
765.605196,-0.250000,0.025000
765.638806,-0.150000,0.043301
765.672416,0.350000,0.238485
765.706025,0.325000,0.224653
765.739634,0.075000,0.124373
765.773243,0.125000,0.054486
765.806851,0.125000,0.124373
765.840460,-0.050000,0.103078
765.874068,0.125000,0.170935
765.907676,-0.050000,0.075000
765.941284,0.350000,0.075000
765.974891,0.050000,0.103078
766.008498,-0.050000,0.082916
766.042105,-0.150000,0.075000
766.075712,0.200000,0.289396
766.109318,0.050000,0.125000
766.142924,0.075000,0.143069
766.176530,-0.300000,0.106066
766.210136,-0.150000,0.055902
766.243741,-0.050000,0.134629
766.277347,-0.025000,0.129301
766.310951,0.425000,0.300780
766.344556,0.025000,0.064952
766.378161,0.075000,0.089268
766.411765,-0.250000,0.114564
766.445369,0.000000,0.093541
766.478973,-0.275000,0.096014
766.512576,0.150000,0.188746
766.546179,0.050000,0.134629
766.579782,0.125000,0.167239
766.613385,0.475000,0.151554
766.646988,0.125000,0.174553
766.680590,0.075000,0.073951
766.714192,-0.150000,0.025000
766.747794,0.025000,0.041458
766.781395,0.350000,0.160078
766.814996,-0.500000,0.035355
766.848597,0.025000,0.054486
766.882198,0.050000,0.043301
766.915799,0.150000,0.055902
766.949399,0.050000,0.082916
766.982999,0.125000,0.113880
767.016599,-0.225000,0.064952
767.050198,0.050000,0.043301
767.083798,0.175000,0.096014
767.117397,0.175000,0.178098
767.150996,0.025000,0.073951
767.184594,-0.050000,0.167705
767.218193,-0.050000,0.055902
767.251791,-0.100000,0.127475
767.285389,-0.250000,0.055902
767.318986,0.000000,0.136931
767.352583,0.200000,0.100000
767.386181,0.450000,0.114564
767.419777,0.400000,0.379144
767.453374,0.250000,0.090139
767.486970,-0.400000,0.050000
767.520567,0.000000,0.035355
767.554162,-0.050000,0.025000
767.587758,-0.025000,0.021651
767.621353,0.275000,0.064952
767.654949,0.125000,0.143069
767.688543,0.225000,0.096014
767.722138,0.025000,0.073951
767.755732,0.100000,0.035355
767.789327,-0.075000,0.174553
767.822921,-0.375000,0.021651
767.856514,-0.250000,0.055902
767.890108,0.400000,0.358818
767.923701,0.100000,0.209165
767.957294,0.175000,0.102317
767.990886,0.150000,0.082916
768.024479,-0.075000,0.021651
768.058071,0.100000,0.061237
768.091663,-0.050000,0.235850
768.125255,0.275000,0.285865
768.158846,0.100000,0.061237
768.192437,-0.350000,0.055902
768.226028,0.000000,0.209165
768.259619,0.225000,0.129301
768.293209,0.925000,0.592004
768.326799,0.075000,0.054486
768.360389,0.075000,0.129301
768.393979,-0.125000,0.041458
768.427568,0.050000,0.055902
768.461158,0.050000,0.188746
768.494747,-0.025000,0.155624
768.528335,-0.075000,0.081968
768.561924,0.275000,0.064952
768.595512,0.050000,0.025000
768.629100,0.225000,0.151554
768.662688,-0.100000,0.061237
768.696275,-0.175000,0.064952
768.729862,-0.075000,0.113880
768.763449,-0.025000,0.041458
768.797036,-0.125000,0.073951
768.830623,0.225000,0.096014
768.864209,0.075000,0.129301
768.897795,0.125000,0.119242
768.931381,0.075000,0.064952
768.964966,0.075000,0.300780
768.998551,0.300000,0.154110
769.032136,0.050000,0.160078
769.065721,0.025000,0.167239
769.099305,-0.350000,0.075000
769.132890,-0.225000,0.073951
769.166474,0.300000,0.035355
769.200057,0.050000,0.125000
769.233641,-0.100000,0.093541
769.267224,-0.100000,0.093541
769.300807,-0.150000,0.334477
769.334390,-0.325000,0.021651
769.367972,0.325000,0.288043
769.401555,0.150000,0.160078
769.435137,-0.150000,0.025000
769.468718,0.025000,0.073951
769.502300,-0.025000,0.102317
769.535881,-0.100000,0.093541
769.569462,-0.450000,0.114564
769.603043,-0.025000,0.073951
769.636623,0.150000,0.129904
769.670204,0.050000,0.090139
769.703784,0.175000,0.041458
769.737364,0.400000,0.150000
769.770943,-0.025000,0.073951
769.804522,-0.025000,0.124373
769.838101,-0.075000,0.064952
769.871680,-0.150000,0.055902
769.905259,-0.375000,0.073951
769.938837,0.075000,0.041458
769.972415,0.075000,0.119242
770.005993,0.000000,0.035355
770.039570,0.100000,0.150000
770.073147,0.100000,0.061237
770.106724,0.075000,0.041458
770.140301,0.275000,0.198037
770.173878,0.125000,0.147373
770.207454,0.350000,0.347311
770.241030,0.325000,0.108253
770.274606,0.025000,0.143069
770.308181,0.250000,0.160078
770.341757,0.075000,0.064952
770.375332,0.025000,0.041458
770.408906,0.000000,0.061237
770.442481,-0.200000,0.061237
770.476055,-0.150000,0.090139
770.509629,0.225000,0.129301
770.543203,0.450000,0.309233
770.576776,0.175000,0.073951
770.610350,0.375000,0.143069
770.643923,0.175000,0.096014
770.677495,0.325000,0.216145
770.711068,0.375000,0.326678
770.744640,0.050000,0.055902
770.778212,-0.025000,0.021651
770.811784,0.100000,0.266927
770.845356,-0.050000,0.055902
770.878927,0.425000,0.113880
770.912498,0.025000,0.041458
770.946069,-0.025000,0.134048
770.979639,-0.050000,0.075000
771.013209,0.350000,0.025000
771.046779,-0.400000,0.035355
771.080349,0.275000,0.298695
771.113919,0.075000,0.041458
771.147488,0.050000,0.055902
771.181057,0.325000,0.081968
771.214626,-0.025000,0.073951
771.248194,0.025000,0.041458
771.281762,0.450000,0.620987
771.315330,0.025000,0.041458
771.348898,0.175000,0.096014
771.382465,-0.175000,0.054486
771.416033,-0.025000,0.119242
771.449600,0.150000,0.251247
771.483166,0.150000,0.134629
771.516733,0.075000,0.081968
771.550299,-0.025000,0.054486
771.583865,0.050000,0.090139
771.617431,0.100000,0.162019
771.650996,0.525000,0.230149
771.684562,0.350000,0.332603
771.718127,0.175000,0.201168
771.751691,-0.050000,0.082916
771.785256,-0.100000,0.136931
771.818820,-0.250000,0.075000
771.852384,0.275000,0.167239
771.885948,-0.075000,0.041458
771.919511,-0.125000,0.089268
771.953074,0.000000,0.000000
771.986637,0.125000,0.064952
772.020200,0.325000,0.204252
772.053762,0.100000,0.079057
772.087325,-0.050000,0.055902
772.120887,-0.225000,0.021651
772.154448,0.075000,0.054486
772.188010,0.075000,0.064952
772.221571,-0.225000,0.064952
772.255132,0.050000,0.055902
772.288692,0.050000,0.134629
772.322253,-0.250000,0.125000
772.355813,0.075000,0.230149
772.389373,0.375000,0.477461
772.422933,0.125000,0.210283
772.456492,0.550000,0.400780
772.490051,0.150000,0.055902
772.523610,0.075000,0.143069
772.557169,-0.075000,0.054486
772.590727,0.100000,0.145774
772.624285,0.200000,0.122474
772.657843,0.200000,0.106066
772.691401,0.025000,0.248433
772.724958,0.250000,0.103078
772.758515,0.175000,0.163459
772.792072,0.025000,0.054486
772.825629,-0.125000,0.073951
772.859185,0.025000,0.073951
772.892741,-0.175000,0.081968
772.926297,0.050000,0.090139
772.959853,0.000000,0.035355
772.993408,-0.500000,0.093541
773.026963,-0.050000,0.082916
773.060518,-0.150000,0.082916
773.094073,-0.100000,0.061237
773.127627,0.250000,0.025000
773.161181,0.300000,0.106066
773.194735,-0.025000,0.054486
773.228289,-0.175000,0.064952
773.261842,0.100000,0.117260
773.295395,0.000000,0.117260
773.328948,0.375000,0.210283
773.362500,0.150000,0.025000
773.396053,-0.025000,0.064952
773.429605,-0.050000,0.025000
773.463157,0.125000,0.073951
773.496708,0.200000,0.079057
773.530260,-0.075000,0.041458
773.563811,-0.275000,0.054486
773.597361,-0.225000,0.096014
773.630912,0.225000,0.253414
773.664462,0.450000,0.025000
773.698012,-0.125000,0.089268
773.731562,0.100000,0.093541
773.765111,0.025000,0.041458
773.798661,-0.100000,0.061237
773.832210,0.325000,0.113880
773.865758,0.100000,0.035355
773.899307,0.550000,0.296859
773.932855,0.050000,0.025000
773.966403,-0.175000,0.089268
773.999951,-0.025000,0.096014
774.033498,-0.025000,0.073951
774.067046,0.175000,0.054486
774.100593,0.125000,0.041458
774.134139,0.050000,0.055902
774.167686,0.225000,0.143069
774.201232,0.425000,0.258300
774.234778,0.225000,0.198037
774.268324,0.025000,0.096014
774.301869,-0.025000,0.021651
774.335414,-0.200000,0.106066
774.368959,0.350000,0.188746
774.402504,0.250000,0.167705
774.436048,0.275000,0.476150
774.469592,0.075000,0.073951
774.503136,-0.050000,0.082916
774.536680,0.075000,0.113880
774.570223,0.275000,0.054486
774.603766,0.175000,0.041458
774.637309,0.050000,0.025000
774.670852,0.100000,0.035355
774.704394,-0.100000,0.061237
774.737936,0.025000,0.227418
774.771478,-0.125000,0.096014
774.805020,0.050000,0.114564
774.838561,0.000000,0.035355
774.872102,0.225000,0.096014
774.905643,0.175000,0.184983
774.939183,0.475000,0.155624
774.972724,0.075000,0.143069
775.006264,-0.250000,0.103078
775.039804,-0.075000,0.041458
775.073343,-0.550000,0.082916
775.106882,-0.275000,0.113880
775.140421,0.100000,0.079057
775.173960,-0.475000,0.081968
775.207499,-0.150000,0.055902
775.241037,0.125000,0.054486
775.274575,-0.100000,0.093541
775.308113,0.225000,0.147373
775.341650,0.650000,0.219374
775.375187,0.075000,0.041458
775.408724,0.050000,0.167705
775.442261,-0.150000,0.043301
775.475798,-0.025000,0.102317
775.509334,0.175000,0.041458
775.542870,-0.100000,0.117260
775.576405,0.075000,0.216145
775.609941,0.025000,0.113880
775.643476,0.325000,0.163459
775.677011,-0.275000,0.108253
775.710546,0.150000,0.043301
775.744080,0.275000,0.213234
775.777614,-0.075000,0.113880
775.811148,-0.050000,0.082916
775.844682,-0.225000,0.041458
775.878215,-0.150000,0.055902
775.911748,0.200000,0.127475
775.945281,0.150000,0.082916
775.978814,-0.200000,0.127475
776.012346,0.225000,0.151554
776.045878,-0.100000,0.106066
776.079410,0.100000,0.035355
776.112941,0.050000,0.082916
776.146473,-0.075000,0.089268
776.180004,0.275000,0.184983
776.213535,0.225000,0.073951
776.247065,0.325000,0.054486
776.280595,0.125000,0.096014
776.314125,-0.025000,0.054486
776.347655,-0.050000,0.125000
776.381185,-0.375000,0.124373
776.414714,0.400000,0.061237
776.448243,0.025000,0.170935
776.481772,0.050000,0.075000
776.515300,0.125000,0.113880
776.548828,0.125000,0.138632
776.582356,-0.125000,0.089268
776.615884,-0.150000,0.055902
776.649411,-0.050000,0.075000
776.682938,-0.025000,0.102317
776.716465,0.075000,0.064952
776.749992,-0.050000,0.055902
776.783518,0.050000,0.025000
776.817044,0.050000,0.090139
776.850570,0.075000,0.064952
776.884096,0.275000,0.181573
776.917621,-0.275000,0.041458
776.951146,0.225000,0.064952
776.984671,-0.425000,0.041458
777.018196,-0.175000,0.041458
777.051720,0.075000,0.054486
777.085244,0.250000,0.103078
777.118768,-0.300000,0.117260
777.152292,0.350000,0.246221
777.185815,0.125000,0.096014
777.219338,-0.050000,0.055902
777.252861,-0.075000,0.064952
777.286383,0.000000,0.061237
777.319905,-0.025000,0.041458
777.353427,0.175000,0.064952
777.386949,0.400000,0.176777
777.420471,0.575000,0.267804
777.453992,-0.025000,0.073951
777.487513,0.225000,0.064952
777.521033,-0.425000,0.073951
777.554554,-0.075000,0.081968
777.588074,0.050000,0.103078
777.621594,0.150000,0.025000
777.655114,0.250000,0.043301
777.688633,0.225000,0.041458
777.722152,0.075000,0.089268
777.755671,0.025000,0.113880
777.789190,0.125000,0.041458
777.822708,-0.175000,0.073951
777.856226,0.325000,0.054486
777.889744,0.600000,0.196850
777.923261,0.250000,0.188746
777.956779,0.100000,0.035355
777.990296,0.275000,0.207289
778.023812,0.450000,0.207666
778.057329,0.325000,0.240767
778.090845,0.025000,0.119242
778.124361,0.400000,0.242384
778.157877,0.175000,0.096014
778.191392,-0.050000,0.075000
778.224908,0.075000,0.054486
778.258423,0.175000,0.124373
778.291937,-0.050000,0.025000
778.325452,0.050000,0.075000
778.358966,0.025000,0.064952
778.392480,0.125000,0.124373
778.425993,-0.100000,0.070711
778.459507,0.100000,0.079057
778.493020,-0.050000,0.055902
778.526533,-0.025000,0.113880
778.560045,-0.125000,0.188331
778.593558,-0.100000,0.127475
778.627070,0.175000,0.248433
778.660582,0.250000,0.195256
778.694093,0.200000,0.106066
778.727605,-0.100000,0.117260
778.761116,0.125000,0.054486
778.794626,0.700000,0.478278
778.828137,0.350000,0.256174
778.861647,0.100000,0.061237
778.895157,0.650000,0.378319
778.928667,0.225000,0.113880
778.962176,0.125000,0.041458
778.995686,0.375000,0.240767
779.029194,0.400000,0.079057
779.062703,0.400000,0.117260
779.096212,0.075000,0.041458
779.129720,0.225000,0.041458
779.163228,0.250000,0.207666
779.196735,-0.000000,0.079057
779.230243,-0.700000,0.035355
779.263750,0.000000,0.061237
779.297257,0.075000,0.054486
779.330763,-0.075000,0.064952
779.364269,0.275000,0.096014
779.397776,0.050000,0.025000
779.431281,0.000000,0.035355
779.464787,0.100000,0.106066
779.498292,0.125000,0.081968
779.531797,0.100000,0.061237
779.565302,0.425000,0.288043
779.598806,0.000000,0.079057
779.632311,0.200000,0.035355
779.665814,0.100000,0.079057
779.699318,-0.025000,0.064952
779.732822,0.275000,0.054486
779.766325,0.275000,0.081968
779.799828,0.325000,0.124373
779.833330,0.150000,0.114564
779.866833,0.025000,0.041458
779.900335,0.150000,0.055902
779.933837,0.125000,0.041458
779.967338,-0.025000,0.081968
780.000840,0.075000,0.167239
780.034341,0.175000,0.361205
780.067841,-0.075000,0.054486
780.101342,-0.125000,0.054486
780.134842,0.250000,0.075000
780.168342,-0.025000,0.119242
780.201842,0.275000,0.021651
780.235341,0.225000,0.230149
780.268841,0.075000,0.134048
780.302340,-0.100000,0.035355
780.335838,0.200000,0.061237
780.369337,0.100000,0.035355
780.402835,0.150000,0.108972
780.436333,-0.100000,0.035355
780.469830,0.525000,0.198037
780.503328,0.400000,0.262202
780.536825,0.125000,0.054486
780.570322,0.275000,0.216145
780.603818,0.475000,0.326678
780.637315,0.050000,0.055902
780.670811,0.250000,0.075000
780.704306,0.125000,0.230149
780.737802,0.150000,0.075000
780.771297,0.075000,0.073951
780.804792,0.225000,0.248433
780.838287,0.050000,0.075000
780.871781,-0.075000,0.129301
780.905276,-0.050000,0.055902
780.938770,-0.275000,0.089268
780.972263,-0.175000,0.064952
781.005757,0.050000,0.082916
781.039250,-0.025000,0.041458
781.072743,0.175000,0.064952
781.106235,-0.025000,0.155624
781.139728,0.050000,0.103078
781.173220,0.075000,0.064952
781.206712,0.150000,0.090139
781.240203,0.275000,0.167239
781.273694,0.050000,0.075000
781.307185,-0.050000,0.090139
781.340676,-0.075000,0.113880
781.374167,0.100000,0.145774
781.407657,0.375000,0.143069
781.441147,0.100000,0.086603
781.474636,0.550000,0.361421
781.508126,0.100000,0.106066
781.541615,0.100000,0.050000
781.575104,0.325000,0.232849
781.608593,0.250000,0.147902
781.642081,0.075000,0.163459
781.675569,0.100000,0.079057
781.709057,0.325000,0.272431
781.742544,0.225000,0.143069
781.776032,0.050000,0.134629
781.809519,-0.125000,0.021651
781.843006,0.075000,0.073951
781.876492,-0.025000,0.021651
781.909978,0.150000,0.055902
781.943464,0.300000,0.127475
781.976950,-0.025000,0.089268
782.010435,0.200000,0.061237
782.043921,0.425000,0.230149
782.077406,0.325000,0.240767
782.110890,0.225000,0.064952
782.144375,-0.100000,0.035355
782.177859,0.250000,0.134629
782.211343,-0.300000,0.035355
782.244826,0.425000,0.054486
782.278309,0.375000,0.138632
782.311792,0.425000,0.178098
782.345275,0.275000,0.108253
782.378758,0.075000,0.124373
782.412240,-0.275000,0.021651
782.445722,0.025000,0.096014
782.479204,0.200000,0.070711
782.512685,-0.125000,0.124373
782.546166,0.125000,0.081968
782.579647,0.250000,0.103078
782.613128,0.075000,0.134048
782.646608,-0.050000,0.025000
782.680088,0.175000,0.108253
782.713568,-0.200000,0.079057
782.747048,0.300000,0.150000
782.780527,-0.225000,0.119242
782.814006,-0.150000,0.108972
782.847485,0.150000,0.103078
782.880963,-0.075000,0.021651
782.914442,-0.050000,0.055902
782.947920,0.125000,0.167239
782.981397,0.100000,0.154110
783.014875,0.200000,0.117260
783.048352,0.000000,0.079057
783.081829,0.075000,0.089268
783.115306,0.175000,0.073951
783.148782,0.375000,0.230149
783.182258,0.000000,0.150000
783.215734,0.050000,0.055902
783.249209,-0.250000,0.055902
783.282685,0.175000,0.102317
783.316160,-0.100000,0.093541
783.349635,0.350000,0.147902
783.383109,-0.075000,0.147373
783.416583,-0.150000,0.055902
783.450057,-0.050000,0.090139
783.483531,0.025000,0.081968
783.517004,0.075000,0.054486
783.550477,0.050000,0.103078
783.583950,0.350000,0.103078
783.617423,0.575000,0.255869
783.650895,0.250000,0.055902
783.684367,-0.025000,0.064952
783.717839,-0.225000,0.245904
783.751311,-0.075000,0.021651
783.784782,-0.075000,0.041458
783.818253,-0.050000,0.055902
783.851724,0.100000,0.035355
783.885194,0.125000,0.041458
783.918665,0.075000,0.064952
783.952134,0.175000,0.041458
783.985604,0.275000,0.124373
784.019074,0.125000,0.147373
784.052543,-0.025000,0.073951
784.086012,0.300000,0.269258
784.119480,0.550000,0.292617
784.152948,0.225000,0.143069
784.186416,0.775000,0.253414
784.219884,-0.050000,0.055902
784.253352,1.075000,0.434993
784.286819,-0.050000,0.103078
784.320286,-0.050000,0.025000
784.353753,0.100000,0.262202
784.387219,0.000000,0.035355
784.420685,0.025000,0.081968
784.454151,0.300000,0.106066
784.487617,0.125000,0.073951
784.521082,0.175000,0.167239
784.554547,0.300000,0.093541
784.588012,0.250000,0.227761
784.621477,0.450000,0.114564
784.654941,0.100000,0.035355
784.688405,0.400000,0.127475
784.721869,0.050000,0.075000
784.755332,0.050000,0.103078
784.788795,0.300000,0.093541
784.822258,0.100000,0.086603
784.855721,0.150000,0.082916
784.889183,-0.075000,0.096014
784.922646,0.025000,0.096014
784.956107,0.475000,0.330483
784.989569,0.175000,0.113880
785.023030,0.075000,0.089268
785.056491,-0.150000,0.043301
785.089952,-0.050000,0.025000
785.123413,-0.050000,0.090139
785.156873,-0.175000,0.113880
785.190333,0.325000,0.313000
785.223792,0.250000,0.175000
785.257252,0.100000,0.035355
785.290711,0.000000,0.061237
785.324170,0.300000,0.206155
785.357629,0.175000,0.134048
785.391087,0.300000,0.035355
785.424545,-0.025000,0.041458
785.458003,0.175000,0.096014
785.491460,-0.125000,0.054486
785.524918,0.250000,0.103078
785.558375,0.025000,0.054486
785.591831,0.125000,0.089268
785.625288,0.075000,0.054486
785.658744,0.200000,0.093541
785.692200,0.100000,0.106066
785.725655,0.025000,0.041458
785.759111,0.150000,0.025000
785.792566,0.100000,0.086603
785.826021,0.000000,0.061237
785.859475,-0.225000,0.073951
785.892930,0.350000,0.195256
785.926384,0.275000,0.102317
785.959837,0.525000,0.489100
785.993291,0.925000,0.243349
786.026744,1.000000,0.215058
786.060197,0.175000,0.124373
786.093649,-0.100000,0.050000
786.127102,0.150000,0.103078
786.160554,0.225000,0.143069
786.194006,0.125000,0.064952
786.227457,0.000000,0.061237
786.260909,0.275000,0.102317
786.294360,0.200000,0.061237
786.327810,-0.100000,0.093541
786.361261,0.400000,0.187083
786.394711,0.200000,0.061237
786.428161,0.075000,0.119242
786.461611,0.150000,0.082916
786.495060,-0.000000,0.093541
786.528509,0.125000,0.263095
786.561958,-0.100000,0.061237
786.595407,0.075000,0.054486
786.628855,0.075000,0.081968
786.662303,-0.225000,0.073951
786.695751,-0.150000,0.043301
786.729198,0.025000,0.041458
786.762645,0.075000,0.054486
786.796092,-0.025000,0.064952
786.829539,0.200000,0.050000
786.862985,0.150000,0.152069
786.896431,-0.050000,0.195256
786.929877,0.025000,0.041458
786.963323,0.025000,0.113880
786.996768,0.175000,0.073951
787.030213,-0.125000,0.089268
787.063658,-0.150000,0.090139
787.097102,0.225000,0.170935
787.130547,-0.300000,0.035355
787.163991,-0.050000,0.075000
787.197434,0.025000,0.073951
787.230878,0.300000,0.079057
787.264321,0.275000,0.089268
787.297764,0.075000,0.041458
787.331206,0.325000,0.081968
787.364648,0.225000,0.096014
787.398090,0.150000,0.025000
787.431532,0.300000,0.106066
787.464974,-0.050000,0.090139
787.498415,-0.175000,0.276981
787.531856,0.000000,0.093541
787.565296,-0.200000,0.079057
787.598737,0.150000,0.055902
787.632177,0.225000,0.096014
787.665617,0.000000,0.122474
787.699056,0.425000,0.207289
787.732496,-0.375000,0.113880
787.765935,0.175000,0.155624
787.799373,0.125000,0.181573
787.832812,0.350000,0.082916
787.866250,0.175000,0.184983
787.899688,1.150000,0.491808
787.933126,0.225000,0.147373
787.966563,0.325000,0.181573
788.000000,0.525000,0.167239
788.033437,0.075000,0.041458
788.066873,0.000000,0.035355
788.100310,0.200000,0.093541
788.133746,0.175000,0.021651
788.167181,0.250000,0.082916
788.200617,0.300000,0.106066
788.234052,0.300000,0.079057
788.267487,-0.125000,0.054486
788.300921,0.025000,0.081968
788.334356,0.200000,0.035355
788.367790,0.100000,0.061237
788.401224,0.100000,0.061237
788.434657,-0.100000,0.000000
788.468090,0.200000,0.093541
788.501523,0.725000,0.181573
788.534956,0.175000,0.073951
788.568389,0.175000,0.064952
788.601821,0.325000,0.296595
788.635253,0.025000,0.108253
788.668684,0.025000,0.064952
788.702116,0.075000,0.163459
788.735547,0.150000,0.114564
788.768977,0.075000,0.096014
788.802408,0.150000,0.075000
788.835838,0.125000,0.073951
788.869268,0.125000,0.081968
788.902698,0.075000,0.054486
788.936127,-0.025000,0.096014
788.969556,0.050000,0.143614
789.002985,0.275000,0.096014
789.036414,0.075000,0.054486
789.069842,0.525000,0.298695
789.103270,0.075000,0.073951
789.136698,0.100000,0.079057
789.170125,0.025000,0.021651
789.203552,0.200000,0.079057
789.236979,0.175000,0.073951
789.270406,0.100000,0.169558
789.303832,0.225000,0.113880
789.337258,-0.025000,0.064952
789.370684,0.075000,0.108253
789.404110,0.275000,0.041458
789.437535,0.325000,0.147373
789.470960,0.225000,0.073951
789.504385,0.125000,0.124373
789.537809,-0.150000,0.055902
789.571233,-0.125000,0.064952
789.604657,0.250000,0.114564
789.638081,0.100000,0.122474
789.671504,0.925000,0.486538
789.704927,1.475000,0.188331
789.738350,1.525000,0.389511
789.771772,1.775000,0.610712
789.805195,0.000000,0.257391
789.838617,0.575000,0.198037
789.872038,0.400000,0.203101
789.905460,-0.525000,0.041458
789.938881,0.200000,0.127475
789.972302,-0.025000,0.041458
790.005722,-0.050000,0.075000
790.039143,-0.125000,0.064952
790.072563,-0.100000,0.035355
790.105982,0.150000,0.075000
790.139402,0.150000,0.055902
790.172821,-0.000000,0.187083
790.206240,0.075000,0.089268
790.239658,0.150000,0.055902
790.273077,-0.025000,0.096014
790.306495,-0.150000,0.114564
790.339913,0.075000,0.041458
790.373330,0.025000,0.089268
790.406747,0.025000,0.073951
790.440164,-0.100000,0.079057
790.473581,0.025000,0.054486
790.506997,-0.100000,0.079057
790.540414,0.275000,0.124373
790.573829,0.600000,0.377492
790.607245,0.100000,0.093541
790.640660,-0.150000,0.082916
790.674075,1.000000,0.559017
790.707490,0.450000,0.251247
790.740904,0.175000,0.064952
790.774319,0.175000,0.138632
790.807733,0.025000,0.108253
790.841146,-0.025000,0.041458
790.874560,-0.025000,0.181573
790.907973,0.150000,0.103078
790.941385,0.275000,0.073951
790.974798,-0.050000,0.082916
791.008210,0.200000,0.050000
791.041622,0.150000,0.175000
791.075034,0.075000,0.096014
791.108445,0.125000,0.073951
791.141856,0.325000,0.064952
791.175267,0.075000,0.134048
791.208678,0.275000,0.054486
791.242088,0.075000,0.113880
791.275498,0.050000,0.075000
791.308908,0.175000,0.054486
791.342317,0.150000,0.055902
791.375726,0.100000,0.050000
791.409135,0.200000,0.061237
791.442544,0.000000,0.308221
791.475952,0.375000,0.167239
791.509360,0.350000,0.129904
791.542768,1.550000,0.305164
791.576176,1.925000,0.585635
791.609583,3.000000,0.535023
791.642990,2.400000,0.792938
791.676396,0.875000,0.409840
791.709803,0.025000,0.054486
791.743209,0.300000,0.079057
791.776615,0.075000,0.224653
791.810020,0.550000,0.301040
791.843425,0.075000,0.073951
791.876830,-0.400000,0.086603
791.910235,0.150000,0.134629
791.943640,0.175000,0.194856
791.977044,-0.125000,0.129301
792.010448,-0.025000,0.124373
792.043851,0.300000,0.136931
792.077254,-0.025000,0.134048
792.110658,0.250000,0.201556
792.144060,-0.025000,0.096014
792.177463,-0.050000,0.075000
792.210865,0.200000,0.187083
792.244267,0.125000,0.073951
792.277668,0.000000,0.061237
792.311070,-0.025000,0.089268
792.344471,0.400000,0.061237
792.377872,0.425000,0.184983
792.411272,0.150000,0.075000
792.444672,0.425000,0.253414
792.478072,0.300000,0.158114
792.511472,-0.200000,0.050000
792.544871,0.175000,0.064952
792.578271,0.250000,0.391312
792.611669,0.200000,0.122474
792.645068,0.875000,0.642626
792.678466,-0.275000,0.041458
792.711864,-0.000000,0.093541
792.745262,-0.075000,0.064952
792.778659,0.000000,0.079057
792.812056,-0.100000,0.061237
792.845453,0.075000,0.108253
792.878850,0.025000,0.096014
792.912246,0.150000,0.082916
792.945642,-0.000000,0.093541
792.979038,0.125000,0.054486
793.012433,0.200000,0.079057
793.045829,-0.100000,0.035355
793.079223,-0.175000,0.096014
793.112618,-0.275000,0.021651
793.146012,0.125000,0.089268
793.179406,-0.075000,0.064952
793.212800,0.125000,0.178098
793.246194,0.375000,0.129301
793.279587,0.350000,0.055902
793.312980,0.425000,0.318934
793.346373,-0.200000,0.086603
793.379765,0.200000,0.136931
793.413157,1.825000,0.397453
793.446549,2.500000,0.764035
793.479940,2.925000,0.545865
793.513332,2.875000,0.760243
793.546723,2.000000,0.688295
793.580113,0.200000,0.122474
793.613504,0.200000,0.122474
793.646894,-0.250000,0.055902
793.680284,-0.000000,0.086603
793.713673,-0.100000,0.111803
793.747062,0.075000,0.073951
793.780451,-0.025000,0.041458
793.813840,0.625000,0.089268
793.847228,0.175000,0.021651
793.880617,0.000000,0.061237
793.914004,0.250000,0.114564
793.947392,-0.325000,0.108253
793.980779,-0.225000,0.064952
794.014166,-0.050000,0.248747
794.047553,0.075000,0.124373
794.080940,0.225000,0.143069
794.114326,0.125000,0.174553
794.147712,-0.025000,0.021651
794.181097,0.050000,0.055902
794.214483,0.200000,0.106066
794.247868,0.250000,0.055902
794.281252,0.525000,0.456036
794.314637,-0.250000,0.090139
794.348021,-0.050000,0.082916
794.381405,-0.050000,0.108972
794.414788,0.000000,0.061237
794.448172,0.150000,0.108972
794.481555,-0.050000,0.134629
794.514938,0.150000,0.134629
794.548320,-0.050000,0.075000
794.581702,0.175000,0.113880
794.615084,0.475000,0.194856
794.648466,0.175000,0.064952
794.681847,0.525000,0.096014
794.715228,-0.550000,0.134629
794.748609,-0.025000,0.302851
794.781990,-0.175000,0.383039
794.815370,1.025000,0.194856
794.848750,0.125000,0.216145
794.882129,-0.150000,0.163936
794.915509,0.075000,0.054486
794.948888,-0.025000,0.355976
794.982267,0.400000,0.200000
795.015645,-0.200000,0.061237
795.049023,0.050000,0.043301
795.082401,0.175000,0.129301
795.115779,0.300000,0.127475
795.149156,0.075000,0.054486
795.182534,0.950000,0.201556
795.215910,0.325000,0.159589
795.249287,0.300000,0.145774
795.282663,0.975000,0.113880
795.316039,4.875000,0.680418
795.349415,5.600000,0.231840
795.382790,7.725000,0.537791
795.416165,5.925000,0.717090
795.449540,1.875000,0.566100
795.482915,0.350000,0.075000
795.516289,0.225000,0.113880
795.549663,0.150000,0.219374
795.583037,0.150000,0.167705
795.616410,0.125000,0.073951
795.649783,-0.225000,0.073951
795.683156,0.625000,0.300780
795.716529,0.175000,0.089268
795.749901,0.225000,0.108253
795.783273,-0.050000,0.103078
795.816645,-0.050000,0.175000
795.850016,0.050000,0.125000
795.883387,0.325000,0.155624
795.916758,0.275000,0.134048
795.950129,0.100000,0.070711
795.983499,-0.075000,0.073951
796.016869,0.100000,0.203101
796.050239,-0.225000,0.113880
796.083608,0.175000,0.064952
796.116977,0.200000,0.093541
796.150346,-0.200000,0.093541
796.183714,0.550000,0.114564
796.217083,0.400000,0.169558
796.250451,-0.200000,0.035355
796.283818,0.125000,0.073951
796.317186,0.150000,0.167705
796.350553,0.350000,0.230489
796.383920,-0.050000,0.160078
796.417286,0.200000,0.079057
796.450653,-0.050000,0.055902
796.484019,0.325000,0.167239
796.517384,0.050000,0.055902
796.550750,0.000000,0.061237
796.584115,0.175000,0.041458
796.617480,-0.125000,0.064952
796.650844,0.150000,0.160078
796.684209,0.000000,0.035355
796.717573,-0.050000,0.043301
796.750936,0.100000,0.035355
796.784300,0.350000,0.134629
796.817663,-0.150000,0.055902
796.851026,0.325000,0.288043
796.884388,0.025000,0.138632
796.917751,0.350000,0.227761
796.951113,-0.075000,0.054486
796.984474,0.250000,0.195256
797.017836,0.175000,0.041458
797.051197,0.050000,0.043301
797.084558,0.000000,0.127475
797.117918,0.500000,0.215058
797.151279,0.225000,0.198037
797.184639,2.350000,0.248747
797.217998,5.675000,0.374792
797.251358,5.300000,0.533854
797.284717,10.425000,0.748645
797.318076,5.066667,0.808033
797.351434,1.625000,0.324760
797.384793,1.000000,0.353553
797.418151,0.825000,0.267804
797.451508,0.125000,0.041458
797.484866,0.025000,0.054486
797.518223,-0.075000,0.108253
797.551580,-0.025000,0.041458
797.584936,0.050000,0.192029
797.618292,-0.100000,0.070711
797.651648,0.100000,0.035355
797.685004,-0.125000,0.041458
797.718360,0.400000,0.093541
797.751715,0.275000,0.224653
797.785069,0.125000,0.073951
797.818424,0.350000,0.309233
797.851778,-0.100000,0.035355
797.885132,-0.350000,0.082916
797.918486,0.175000,0.155624
797.951839,-0.250000,0.043301
797.985192,0.450000,0.286138
798.018545,0.025000,0.021651
798.051898,0.575000,0.267804
798.085250,0.150000,0.125000
798.118602,0.000000,0.061237
798.151954,0.075000,0.178098
798.185305,0.225000,0.343466
798.218656,0.325000,0.170935
798.252007,0.525000,0.368061
798.285357,0.675000,0.451906
798.318708,0.175000,0.270127
798.352057,0.325000,0.073951
798.385407,0.375000,0.326678
798.418756,0.025000,0.113880
798.452106,0.300000,0.106066
798.485454,-0.050000,0.075000
798.518803,0.475000,0.324760
798.552151,0.350000,0.182003
798.585499,0.225000,0.081968
798.618847,0.050000,0.114564
798.652194,0.100000,0.093541
798.685541,0.575000,0.155624
798.718888,0.175000,0.064952
798.752234,0.050000,0.134629
798.785580,0.375000,0.054486
798.818926,0.025000,0.041458
798.852272,-0.000000,0.111803
798.885617,0.025000,0.147373
798.918962,-0.050000,0.055902
798.952307,-0.025000,0.041458
798.985651,0.650000,0.363146
799.018996,0.225000,0.113880
799.052339,1.275000,0.184983
799.085683,3.650000,0.447912
799.119026,7.100000,0.127475
799.152369,14.275000,1.353410
799.185712,17.100000,1.093161
799.219054,10.800000,1.378858
799.252397,2.625000,0.558318
799.285738,0.600000,0.320156
799.319080,0.150000,0.075000
799.352421,0.350000,0.129904
799.385762,0.175000,0.054486
799.419103,0.125000,0.073951
799.452443,-0.050000,0.082916
799.485783,0.350000,0.075000
799.519123,0.475000,0.143069
799.552463,-0.150000,0.082916
799.585802,-0.100000,0.061237
799.619141,0.075000,0.041458
799.652480,-0.175000,0.073951
799.685818,-0.275000,0.181573
799.719156,0.075000,0.089268
799.752494,0.225000,0.021651
799.785831,0.075000,0.138632
799.819169,0.325000,0.143069
799.852506,-0.100000,0.035355
799.885842,-0.200000,0.035355
799.919179,-0.075000,0.113880
799.952515,0.075000,0.064952
799.985850,0.175000,0.129301
800.019186,0.125000,0.134048
800.052521,0.175000,0.073951
800.085856,0.050000,0.188746
800.119191,0.600000,0.165831
800.152525,0.150000,0.082916
800.185859,0.200000,0.093541
800.219193,0.300000,0.183712
800.252526,0.225000,0.073951
800.285859,0.150000,0.090139
800.319192,0.100000,0.070711
800.352525,0.225000,0.191621
800.385857,-0.075000,0.073951
800.419189,0.175000,0.041458
800.452521,0.150000,0.134629
800.485852,0.550000,0.213600
800.519183,-0.350000,0.055902
800.552514,0.075000,0.314990
800.585844,-0.575000,0.379761
800.619175,0.300000,0.250000
800.652505,0.500000,0.322102
800.685834,0.675000,0.124373
800.719164,0.125000,0.021651
800.752493,0.075000,0.054486
800.785821,0.950000,0.248747
800.819150,0.350000,0.251247
800.852478,0.025000,0.041458
800.885806,0.150000,0.108972
800.919134,0.150000,0.090139
800.952461,0.125000,0.124373
800.985788,3.366667,0.768386
801.019115,15.950000,0.510514
801.052441,35.100000,1.127497
801.085767,43.266667,1.291478
801.119093,36.433333,1.327278
801.152419,13.266667,0.142887
801.185744,2.900000,0.187083
801.219069,0.425000,0.159589
801.252394,0.200000,0.093541
801.285718,0.025000,0.143069
801.319042,0.150000,0.188746
801.352366,0.000000,0.158114
801.385690,0.100000,0.122474
801.419013,-0.266667,0.389444
801.452336,-0.050000,0.357946
801.485658,0.400000,0.652878
801.518981,0.750000,0.341870
801.552303,0.200000,0.196850
801.585625,0.175000,0.151554
801.618946,0.275000,0.326678
801.652267,-0.050000,0.055902
801.685588,0.175000,0.041458
801.718909,0.875000,0.210283
801.752229,0.300000,0.093541
801.785549,0.175000,0.096014
801.818869,-0.000000,0.093541
801.852188,-0.200000,0.035355
801.885507,0.050000,0.090139
801.918826,0.275000,0.108253
801.952145,-0.100000,0.000000
801.985463,-0.050000,0.043301
802.018781,0.400000,0.061237
802.052099,0.200000,0.183712
802.085416,-0.025000,0.124373
802.118733,0.175000,0.163459
802.152050,0.100000,0.035355
802.185366,0.275000,0.089268
802.218683,0.300000,0.093541
802.251999,0.000000,0.061237
802.285314,-0.150000,0.160078
802.318630,0.100000,0.061237
802.351945,-0.075000,0.041458
802.385259,0.100000,0.061237
802.418574,0.175000,0.041458
802.451888,0.325000,0.073951
802.485202,0.800000,0.276134
802.518515,-0.125000,0.089268
802.551829,0.150000,0.114564
802.585142,0.300000,0.061237
802.618454,0.125000,0.041458
802.651767,0.175000,0.134048
802.685079,-0.375000,0.096014
802.718391,0.275000,0.163459
802.751702,-0.200000,0.061237
802.785013,0.075000,0.041458
802.818324,0.525000,0.147373
802.851635,0.200000,0.093541
802.884945,0.900000,0.271570
802.918255,7.650000,0.931732
802.951565,31.425000,1.386261
802.984874,49.550000,1.473304
803.018184,59.466667,2.952612
803.051492,44.375000,2.452390
803.084801,7.533333,0.628822
803.118109,2.475000,0.424816
803.151417,-0.125000,0.184983
803.184725,0.500000,0.183712
803.218032,0.075000,0.054486
803.251339,0.275000,0.081968
803.284646,-0.025000,0.064952
803.317953,0.175000,0.064952
803.351259,-0.275000,0.041458
803.384565,-0.075000,0.041458
803.417870,0.800000,0.259808
803.451176,0.250000,0.225000
803.484481,-0.025000,0.151554
803.517786,0.050000,0.147902
803.551090,0.175000,0.188331
803.584394,0.200000,0.093541
803.617698,-0.200000,0.035355
803.651002,0.150000,0.216506
803.684305,-0.025000,0.210283
803.717608,0.000000,0.127475
803.750910,0.275000,0.306951
803.784213,0.300000,0.154110
803.817515,0.750000,0.129904
803.850817,0.525000,0.511585
803.884118,0.350000,0.204634
803.917419,0.475000,0.129301
803.950720,0.400000,0.111803
803.984021,0.575000,0.314990
804.017321,0.625000,0.191621
804.050621,0.325000,0.210283
804.083921,0.775000,0.267804
804.117220,0.275000,0.096014
804.150519,0.225000,0.147373
804.183818,0.850000,0.419076
804.217117,-0.400000,0.061237
804.250415,0.150000,0.090139
804.283713,0.325000,0.230149
804.317011,0.125000,0.021651
804.350308,0.025000,0.041458
804.383605,0.200000,0.209165
804.416902,0.325000,0.041458
804.450198,0.400000,0.070711
804.483494,0.600000,0.136931
804.516790,0.125000,0.102317
804.550086,0.050000,0.143614
804.583381,-0.150000,0.090139
804.616676,0.350000,0.143614
804.649971,0.825000,0.224653
804.683265,0.400000,0.176777
804.716559,-0.475000,0.096014
804.749853,0.750000,0.268095
804.783146,0.150000,0.188746
804.816440,2.700000,0.754983
804.849732,15.025000,1.273958
804.883025,53.175000,2.302275
804.916317,81.750000,2.761453
804.949609,97.125000,2.643713
804.982901,54.400000,3.709953
805.016192,15.675000,2.548866
805.049484,2.350000,0.114564
805.082774,-0.150000,0.134629
805.116065,0.575000,0.240767
805.149355,0.125000,0.108253
805.182645,-0.050000,0.043301
805.215935,0.150000,0.075000
805.249224,0.725000,0.341641
805.282513,-0.125000,0.089268
805.315802,0.450000,0.055902
805.349090,0.175000,0.124373
805.382378,0.300000,0.183712
805.415666,0.075000,0.054486
805.448954,0.150000,0.160078
805.482241,0.250000,0.163936
805.515528,0.625000,0.347086
805.548815,0.350000,0.279508
805.582101,0.250000,0.082916
805.615387,0.000000,0.061237
805.648673,0.225000,0.073951
805.681958,0.450000,0.207666
805.715243,0.325000,0.113880
805.748528,0.200000,0.050000
805.781813,0.175000,0.181573
805.815097,0.650000,0.213600
805.848381,-0.125000,0.198037
805.881665,0.450000,0.207666
805.914948,0.625000,0.250936
805.948231,0.050000,0.143614
805.981514,0.200000,0.302076
806.014796,0.450000,0.270416
806.048079,0.550000,0.090139
806.081360,0.075000,0.041458
806.114642,0.300000,0.176777
806.147923,0.075000,0.155624
806.181204,-0.050000,0.114564
806.214485,-0.275000,0.124373
806.247765,0.200000,0.136931
806.281046,0.350000,0.175000
806.314325,0.100000,0.079057
806.347605,0.450000,0.125000
806.380884,-0.425000,0.167239
806.414163,0.200000,0.162019
806.447441,0.100000,0.050000
806.480720,0.425000,0.216145
806.513998,0.150000,0.075000
806.547275,0.725000,0.108253
806.580553,1.000000,0.364005
806.613830,0.525000,0.181573
806.647107,0.550000,0.152069
806.680383,0.425000,0.400586
806.713659,1.100000,0.358818
806.746935,1.875000,0.616821
806.780211,12.866667,0.174404
806.813486,74.375000,1.694983
806.846761,154.100000,3.459949
806.880036,195.125000,2.503092
806.913310,161.775000,3.016284
806.946584,45.933333,0.328507
806.979858,8.250000,0.425000
807.013132,1.475000,0.468208
807.046405,0.225000,0.188331
807.079678,0.600000,0.215058
807.112951,0.525000,0.129301
807.146223,0.225000,0.265460
807.179495,-0.075000,0.119242
807.212767,-0.375000,0.124373
807.246038,0.475000,0.265460
807.279309,0.375000,0.343466
807.312580,0.300000,0.226385
807.345850,0.550000,0.279508
807.379121,0.675000,0.442118
807.412390,0.150000,0.134629
807.445660,0.075000,0.064952
807.478929,0.300000,0.145774
807.512198,0.825000,0.515237
807.545467,-0.100000,0.266927
807.578735,0.025000,0.143069
807.612004,-0.650000,0.075000
807.645271,0.150000,0.082916
807.678539,-0.125000,0.240767
807.711806,0.350000,0.103078
807.745073,0.450000,0.225000
807.778340,-0.025000,0.155624
807.811606,0.650000,0.163936
807.844872,0.725000,0.373120
807.878138,0.650000,0.103078
807.911403,0.050000,0.178536
807.944668,0.350000,0.075000
807.977933,0.575000,0.263095
808.011197,0.525000,0.198037
808.044462,0.200000,0.079057
808.077725,0.150000,0.188746
808.110989,0.475000,0.216145
808.144252,0.175000,0.096014
808.177515,0.500000,0.106066
808.210778,0.125000,0.124373
808.244040,0.550000,0.160078
808.277302,-0.200000,0.093541
808.310564,0.225000,0.219018
808.343826,0.675000,0.373120
808.377087,0.225000,0.174553
808.410348,0.775000,0.253414
808.443608,0.600000,0.162019
808.476869,-0.075000,0.119242
808.510129,0.000000,0.183712
808.543388,0.450000,0.248747
808.576648,0.300000,0.154110
808.609907,0.300000,0.079057
808.643165,0.825000,0.427748
808.676424,1.675000,0.705669
808.709682,5.825000,0.514022
808.742940,50.966667,0.884826
808.776197,181.566667,0.982556
808.809455,304.500000,6.908600
808.842712,308.975000,4.206450
808.875968,169.433333,3.806956
808.909225,25.533333,2.800521
808.942481,6.325000,1.245680
808.975736,0.625000,0.163459
809.008992,0.175000,0.332368
809.042247,0.550000,0.270416
809.075502,-0.100000,0.318198
809.108756,-0.525000,0.207289
809.142011,1.250000,0.292617
809.175265,0.950000,0.453459
809.208518,0.850000,0.368273
809.241772,-0.125000,0.167239
809.275025,0.400000,0.187083
809.308277,0.550000,0.147902
809.341530,0.150000,0.025000
809.374782,1.000000,0.276134
809.408034,0.625000,0.073951
809.441285,0.050000,0.204634
809.474536,0.025000,0.188331
809.507787,0.025000,0.124373
809.541038,0.275000,0.119242
809.574288,0.250000,0.286138
809.607538,0.125000,0.163459
809.640788,0.900000,0.627495
809.674037,0.225000,0.147373
809.707286,0.275000,0.113880
809.740535,0.175000,0.134048
809.773783,0.475000,0.119242
809.807032,0.375000,0.296595
809.840279,-0.100000,0.196850
809.873527,0.250000,0.201556
809.906774,0.125000,0.113880
809.940021,0.350000,0.246221
809.973268,1.025000,0.147373
810.006514,0.175000,0.304908
810.039760,0.750000,0.454835
810.073006,0.350000,0.277263
810.106251,0.950000,0.204634
810.139497,0.900000,0.262202
810.172741,0.275000,0.213234
810.205986,0.475000,0.260708
810.239230,0.025000,0.423342
810.272474,1.600000,0.594769
810.305718,1.300000,0.379144
810.338961,0.450000,0.460299
810.372204,0.475000,0.483962
810.405447,0.200000,0.492443
810.438689,0.650000,0.216506
810.471931,0.225000,0.240767
810.505173,1.200000,0.289396
810.538414,1.175000,0.526041
810.571656,1.050000,0.317214
810.604897,0.850000,0.175000
810.638137,2.600000,0.337268
810.671377,18.950000,1.107079
810.704617,127.775000,1.967668
810.737857,443.950000,8.385888
810.771096,616.850000,9.567295
810.804335,580.125000,7.770728
810.837574,248.650000,0.335876
810.870813,36.450000,2.666107
810.904051,8.225000,1.248186
810.937288,2.350000,0.634921
810.970526,1.225000,0.281458
811.003763,-0.000000,0.203101
811.037000,0.450000,0.376663
811.070237,0.950000,0.475000
811.103473,0.350000,0.227761
811.136709,-0.100000,0.180278
811.169945,0.100000,0.209165
811.203180,0.775000,0.355976
811.236415,0.175000,0.041458
811.269650,0.325000,0.181573
811.302884,0.150000,0.256174
811.336119,-0.150000,0.167705
811.369352,0.150000,0.152069
811.402586,0.575000,0.754466
811.435819,0.925000,0.981310
811.469052,1.625000,0.143069
811.502285,0.450000,0.188746
811.535517,-3.333333,0.900925
811.568749,0.100000,0.607248
811.601981,1.050000,0.705780
811.635212,0.550000,0.347311
811.668443,0.275000,0.073951
811.701674,0.550000,0.178536
811.734905,0.125000,0.296595
811.768135,0.800000,0.093541
811.801365,0.750000,0.219374
811.834594,0.650000,0.403887
811.867824,0.375000,0.733464
811.901053,-0.325000,0.064952
811.934281,-0.100000,0.252488
811.967510,0.600000,0.498748
812.000738,0.250000,0.207666
812.033965,0.300000,0.070711
812.067193,0.675000,0.328586
812.100420,0.375000,0.366359
812.133647,-0.200000,0.169558
812.166873,-1.125000,0.134048
812.200099,0.075000,0.194856
812.233325,0.150000,0.301040
812.266551,-0.050000,0.075000
812.299776,0.575000,0.230149
812.333001,0.475000,0.276981
812.366226,0.250000,0.207666
812.399450,0.025000,0.288043
812.432674,0.525000,0.339807
812.465898,0.200000,0.425735
812.499121,0.350000,0.216506
812.532345,0.400000,0.122474
812.565567,1.875000,0.371441
812.598790,0.800000,0.316228
812.632012,3.750000,0.864942
812.665234,32.433333,1.000833
812.698456,148.033333,4.540696
812.731677,240.566667,3.400429
812.764898,242.400000,7.634379
812.798119,130.333333,1.023067
812.831339,20.400000,2.164486
812.864559,2.900000,0.215058
812.897779,1.075000,0.397453
812.930998,0.425000,0.041458
812.964217,0.750000,0.350892
812.997436,0.075000,0.255869
813.030655,0.350000,0.188746
813.063873,0.350000,0.225000
813.097091,0.375000,0.260708
813.130308,-0.475000,0.081968
813.163526,0.275000,0.267804
813.196743,-0.050000,0.188746
813.229959,0.675000,0.298695
813.263176,0.275000,0.270127
813.296392,0.175000,0.235518
813.329607,0.375000,0.296595
813.362823,0.525000,0.300780
813.396038,0.125000,0.041458
813.429253,0.125000,0.191621
813.462467,-0.050000,0.225000
813.495682,-0.025000,0.238157
813.528895,0.175000,0.155624
813.562109,0.200000,0.117260
813.595322,0.825000,0.491649
813.628535,0.375000,0.194856
813.661748,0.300000,0.176777
813.694960,1.075000,0.540110
813.728172,0.400000,0.280624
813.761384,0.050000,0.055902
813.794596,-0.525000,0.113880
813.827807,-0.475000,0.113880
813.861017,-0.125000,0.102317
813.894228,0.300000,0.209165
813.927438,0.500000,0.158114
813.960648,0.975000,0.389511
813.993858,-0.025000,0.073951
814.027067,0.300000,0.093541
814.060276,0.050000,0.147902
814.093485,-0.100000,0.176777
814.126693,0.000000,0.136931
814.159901,0.175000,0.397453
814.193109,0.050000,0.292617
814.226316,0.625000,0.290205
814.259523,0.300000,0.322102
814.292730,0.125000,0.108253
814.325936,0.625000,0.337963
814.359143,0.125000,0.167239
814.392348,0.300000,0.183712
814.425554,0.275000,0.129301
814.458759,0.625000,0.147373
814.491964,0.025000,0.276981
814.525169,0.500000,0.190394
814.558373,0.125000,0.096014
814.591577,0.250000,0.317214
814.624781,0.475000,0.210283
814.657984,0.925000,0.495448
