#{
#    "background_file": "Backgrounds\\\\bg_787.999nm_16bin_197st_244en_10.0s_110g_4x_1_seq.txt",
#    "ccd_image_settings": [
#        1,
#        16,
#        1,
#        1600,
#        197,
#        244
#    ],
#    "ccd_temperature": "-88",
#    "cdRatios": {
#        "mean": 0.93232097726839,
#        "std": 0.0064701098997912345
#    },
#    "center_lambda": 788.0,
#    "comments": "",
#    "dark_region": 0.27126459449144735,
#    "date": "11/17/19 13:52:04PM",
#    "eff_field": 1.5,
#    "exposure": 10.0,
#    "fel_lambda": "15.0",
#    "fel_pol": "H",
#    "fel_pulses": 40,
#    "fel_pyro_cal": "0.017",
#    "fel_reprate": "1.07",
#    "fel_transmission": "1.0",
#    "fel_transmission_fits": {
#        "A": 1.0,
#        "C": 0.0,
#        "Mu": 0.0
#    },
#    "fieldInt": {
#        "mean": 9218.476977272727,
#        "std": 458.7578311579853
#    },
#    "fieldStrength": {
#        "mean": 44.03775,
#        "std": 1.0973605270316482
#    },
#    "fpTime": {
#        "mean": 1.1080061332229652,
#        "std": 0.07220177652821941
#    },
#    "gain": 110,
#    "grating": 3,
#    "images_in_sequence": [
#        "hsg_SpotD_crystal16_a90_HAna25.txt",
#        "hsg_SpotD_crystal16_a90_HAna26.txt",
#        "hsg_SpotD_crystal16_a90_HAna27.txt",
#        "hsg_SpotD_crystal16_a90_HAna28.txt"
#    ],
#    "nir_lambda": "820.9918",
#    "nir_pola": "90",
#    "nir_polg": "0",
#    "nir_power": "100.0",
#    "pulseEnergies": {
#        "mean": 1.98375,
#        "std": 0.11026024012995003
#    },
#    "pyroVoltage": {
#        "mean": 0.12521625237176565,
#        "std": 0.0077252201035419785
#    },
#    "rotatorAngle": 112.49999633788168,
#    "sample_Temp": "58",
#    "sample_name": "L001218.C3",
#    "series": "SpotD_16_90",
#    "slits": "60",
#    "spec_step": "",
#    "window_trans": 0.92,
#    "y_max": 2,
#    "y_min": 1
#}
#
#
#
#
#
#
#
#
#
#
#
#
#
#
#
#
#
#
#
#
#
#
#
#
#
#
Wavelength,Signal,error
nm,arb. u.,arb.u.
Wavelength,SpotD_16_90,error
761.200217,-0.100000,0.093541
761.233859,-0.125000,0.096014
761.267500,0.375000,0.181573
761.301141,0.050000,0.125000
761.334781,0.150000,0.090139
761.368422,-0.175000,0.198037
761.402062,0.050000,0.075000
761.435702,-0.075000,0.138632
761.469342,-0.100000,0.061237
761.502981,0.175000,0.089268
761.536620,-0.075000,0.021651
761.570259,-0.175000,0.073951
761.603898,-0.225000,0.021651
761.637537,-0.175000,0.073951
761.671175,-0.025000,0.021651
761.704813,0.200000,0.100000
761.738451,0.025000,0.021651
761.772088,-0.075000,0.073951
761.805726,-0.050000,0.192029
761.839363,-0.050000,0.043301
761.873000,-0.300000,0.000000
761.906636,-0.025000,0.054486
761.940273,0.225000,0.073951
761.973909,0.350000,0.336341
762.007545,0.175000,0.041458
762.041180,-0.175000,0.138632
762.074816,-0.100000,0.035355
762.108451,0.375000,0.238157
762.142086,0.175000,0.108253
762.175720,0.050000,0.043301
762.209355,0.200000,0.093541
762.242989,0.050000,0.103078
762.276623,0.025000,0.041458
762.310257,-0.125000,0.064952
762.343890,-0.300000,0.106066
762.377524,-0.075000,0.089268
762.411157,0.050000,0.075000
762.444789,0.150000,0.043301
762.478422,0.175000,0.151554
762.512054,-0.050000,0.043301
762.545686,0.000000,0.079057
762.579318,0.050000,0.143614
762.612950,0.375000,0.089268
762.646581,-0.150000,0.103078
762.680212,0.350000,0.188746
762.713843,0.050000,0.075000
762.747474,0.175000,0.155624
762.781104,-0.225000,0.089268
762.814734,-0.500000,0.035355
762.848364,-0.300000,0.035355
762.881994,-0.150000,0.025000
762.915623,0.025000,0.064952
762.949252,-0.125000,0.041458
762.982881,0.125000,0.073951
763.016510,0.075000,0.054486
763.050139,-0.225000,0.021651
763.083767,0.000000,0.035355
763.117395,0.050000,0.055902
763.151023,0.000000,0.070711
763.184650,0.100000,0.079057
763.218277,0.075000,0.272431
763.251904,-0.050000,0.075000
763.285531,0.150000,0.103078
763.319158,0.200000,0.209165
763.352784,-0.225000,0.096014
763.386410,-0.250000,0.043301
763.420036,-0.325000,0.224653
763.453661,0.775000,0.379761
763.487287,0.850000,0.536773
763.520912,-0.575000,0.281458
763.554537,0.275000,0.188331
763.588161,-0.000000,0.086603
763.621786,-0.125000,0.089268
763.655410,0.025000,0.108253
763.689034,-0.200000,0.122474
763.722657,0.000000,0.035355
763.756281,0.050000,0.043301
763.789904,0.100000,0.093541
763.823527,0.100000,0.106066
763.857150,-0.125000,0.073951
763.890772,-0.225000,0.064952
763.924394,-0.050000,0.043301
763.958016,0.150000,0.055902
763.991638,0.350000,0.075000
764.025260,0.175000,0.119242
764.058881,0.000000,0.061237
764.092502,-0.100000,0.203101
764.126123,0.200000,0.070711
764.159743,0.300000,0.293684
764.193363,-0.150000,0.075000
764.226983,-0.125000,0.021651
764.260603,0.150000,0.055902
764.294223,-0.025000,0.119242
764.327842,0.050000,0.143614
764.361461,0.575000,0.300780
764.395080,0.225000,0.113880
764.428699,-0.175000,0.064952
764.462317,0.000000,0.061237
764.495935,-0.250000,0.082916
764.529553,0.125000,0.054486
764.563170,0.300000,0.079057
764.596788,0.125000,0.073951
764.630405,-0.225000,0.064952
764.664022,-0.175000,0.021651
764.697638,0.100000,0.035355
764.731255,0.625000,0.143069
764.764871,0.225000,0.204252
764.798487,-0.250000,0.090139
764.832103,-0.075000,0.041458
764.865718,0.175000,0.163459
764.899333,0.075000,0.102317
764.932948,0.025000,0.138632
764.966563,-0.100000,0.162019
765.000177,0.350000,0.251247
765.033792,-0.000000,0.086603
765.067406,0.025000,0.073951
765.101019,0.125000,0.129301
765.134633,-0.025000,0.386288
765.168246,0.225000,0.138632
765.201859,0.100000,0.050000
765.235472,0.075000,0.073951
765.269084,0.175000,0.021651
765.302697,-0.000000,0.209165
765.336309,0.000000,0.061237
765.369920,0.375000,0.155624
765.403532,-0.175000,0.113880
765.437143,-0.150000,0.103078
765.470754,0.225000,0.089268
765.504365,0.100000,0.061237
765.537976,0.150000,0.082916
765.571586,0.025000,0.174553
765.605196,-0.200000,0.035355
765.638806,-0.075000,0.096014
765.672416,-0.025000,0.240767
765.706025,0.200000,0.127475
765.739634,0.025000,0.073951
765.773243,0.300000,0.061237
765.806851,0.550000,0.279508
765.840460,-0.075000,0.021651
765.874068,0.075000,0.021651
765.907676,0.000000,0.176777
765.941284,0.525000,0.113880
765.974891,0.200000,0.093541
766.008498,0.075000,0.163459
766.042105,0.000000,0.070711
766.075712,-0.275000,0.124373
766.109318,-0.025000,0.240767
766.142924,-0.150000,0.075000
766.176530,-0.275000,0.245904
766.210136,-0.275000,0.041458
766.243741,-0.075000,0.064952
766.277347,-0.200000,0.079057
766.310951,-0.000000,0.093541
766.344556,0.075000,0.129301
766.378161,0.300000,0.183712
766.411765,-0.175000,0.089268
766.445369,0.000000,0.093541
766.478973,-0.050000,0.090139
766.512576,-0.025000,0.054486
766.546179,0.175000,0.134048
766.579782,-0.050000,0.025000
766.613385,-0.050000,0.055902
766.646988,-0.200000,0.100000
766.680590,0.050000,0.055902
766.714192,0.475000,0.412879
766.747794,0.025000,0.041458
766.781395,0.850000,0.430842
766.814996,-0.300000,0.158114
766.848597,-0.075000,0.041458
766.882198,0.025000,0.096014
766.915799,0.025000,0.041458
766.949399,-0.025000,0.021651
766.982999,-0.025000,0.041458
767.016599,-0.150000,0.043301
767.050198,0.300000,0.183712
767.083798,0.050000,0.075000
767.117397,0.000000,0.035355
767.150996,0.000000,0.145774
767.184594,-0.400000,0.150000
767.218193,-0.075000,0.041458
767.251791,-0.025000,0.096014
767.285389,-0.200000,0.237171
767.318986,0.075000,0.124373
767.352583,0.100000,0.035355
767.386181,0.175000,0.240767
767.419777,-0.025000,0.143069
767.453374,0.150000,0.043301
767.486970,-0.300000,0.035355
767.520567,0.200000,0.106066
767.554162,0.075000,0.054486
767.587758,-0.025000,0.096014
767.621353,0.050000,0.075000
767.654949,0.175000,0.119242
767.688543,0.175000,0.064952
767.722138,0.050000,0.055902
767.755732,0.350000,0.175000
767.789327,-0.200000,0.061237
767.822921,-0.175000,0.113880
767.856514,-0.250000,0.160078
767.890108,-0.125000,0.041458
767.923701,-0.050000,0.108972
767.957294,-0.075000,0.064952
767.990886,0.150000,0.055902
768.024479,0.125000,0.113880
768.058071,0.150000,0.108972
768.091663,-0.250000,0.055902
768.125255,0.125000,0.263095
768.158846,0.100000,0.061237
768.192437,-0.150000,0.103078
768.226028,-0.025000,0.096014
768.259619,0.075000,0.124373
768.293209,0.025000,0.041458
768.326799,0.400000,0.266927
768.360389,-0.100000,0.061237
768.393979,0.500000,0.462331
768.427568,-0.075000,0.054486
768.461158,-0.025000,0.081968
768.494747,0.325000,0.230149
768.528335,-0.025000,0.021651
768.561924,0.150000,0.082916
768.595512,0.025000,0.096014
768.629100,0.550000,0.277263
768.662688,-0.100000,0.093541
768.696275,0.125000,0.276981
768.729862,-0.325000,0.054486
768.763449,-0.075000,0.021651
768.797036,-0.025000,0.073951
768.830623,0.450000,0.103078
768.864209,0.100000,0.061237
768.897795,0.475000,0.255869
768.931381,-0.125000,0.096014
768.964966,-0.250000,0.025000
768.998551,0.100000,0.061237
769.032136,0.300000,0.276134
769.065721,-0.175000,0.064952
769.099305,0.000000,0.050000
769.132890,0.175000,0.155624
769.166474,0.200000,0.035355
769.200057,-0.025000,0.184983
769.233641,0.175000,0.143069
769.267224,0.050000,0.103078
769.300807,-0.250000,0.225000
769.334390,-0.175000,0.064952
769.367972,0.300000,0.035355
769.401555,-0.075000,0.054486
769.435137,0.100000,0.209165
769.468718,0.025000,0.096014
769.502300,-0.025000,0.134048
769.535881,-0.325000,0.113880
769.569462,-0.375000,0.108253
769.603043,-0.125000,0.064952
769.636623,0.300000,0.136931
769.670204,-0.200000,0.035355
769.703784,0.125000,0.102317
769.737364,0.250000,0.055902
769.770943,0.425000,0.341641
769.804522,0.250000,0.283945
769.838101,-0.200000,0.093541
769.871680,0.050000,0.147902
769.905259,-0.300000,0.093541
769.938837,-0.075000,0.064952
769.972415,0.125000,0.041458
770.005993,-0.025000,0.129301
770.039570,-0.100000,0.093541
770.073147,0.000000,0.061237
770.106724,-0.050000,0.108972
770.140301,0.275000,0.021651
770.173878,0.200000,0.145774
770.207454,0.225000,0.113880
770.241030,0.300000,0.176777
770.274606,0.450000,0.192029
770.308181,0.150000,0.134629
770.341757,-0.100000,0.106066
770.375332,-0.100000,0.035355
770.408906,0.050000,0.043301
770.442481,-0.300000,0.050000
770.476055,0.025000,0.124373
770.509629,0.175000,0.041458
770.543203,-0.150000,0.025000
770.576776,0.000000,0.061237
770.610350,0.150000,0.075000
770.643923,0.050000,0.134629
770.677495,0.050000,0.075000
770.711068,-0.075000,0.108253
770.744640,-0.075000,0.064952
770.778212,-0.050000,0.055902
770.811784,-0.125000,0.021651
770.845356,-0.050000,0.075000
770.878927,0.200000,0.050000
770.912498,0.150000,0.103078
770.946069,-0.275000,0.041458
770.979639,0.225000,0.151554
771.013209,0.250000,0.225000
771.046779,-0.450000,0.082916
771.080349,0.075000,0.064952
771.113919,0.000000,0.079057
771.147488,-0.100000,0.061237
771.181057,-0.100000,0.061237
771.214626,-0.225000,0.054486
771.248194,-0.025000,0.073951
771.281762,-0.150000,0.286138
771.315330,0.025000,0.138632
771.348898,0.225000,0.041458
771.382465,-0.200000,0.122474
771.416033,-0.050000,0.043301
771.449600,0.500000,0.413824
771.483166,0.025000,0.235518
771.516733,0.025000,0.138632
771.550299,-0.050000,0.055902
771.583865,0.200000,0.093541
771.617431,-0.050000,0.025000
771.650996,0.450000,0.125000
771.684562,0.075000,0.155624
771.718127,-0.100000,0.117260
771.751691,0.000000,0.070711
771.785256,-0.225000,0.113880
771.818820,-0.200000,0.050000
771.852384,0.075000,0.124373
771.885948,-0.100000,0.035355
771.919511,-0.025000,0.073951
771.953074,0.100000,0.093541
771.986637,0.475000,0.181573
772.020200,0.000000,0.035355
772.053762,-0.075000,0.064952
772.087325,0.075000,0.210283
772.120887,-0.025000,0.155624
772.154448,0.150000,0.055902
772.188010,0.025000,0.081968
772.221571,-0.175000,0.064952
772.255132,0.100000,0.106066
772.288692,0.150000,0.201556
772.322253,0.200000,0.196850
772.355813,-0.050000,0.188746
772.389373,0.100000,0.520817
772.422933,-0.175000,0.081968
772.456492,0.200000,0.106066
772.490051,0.150000,0.025000
772.523610,0.375000,0.194856
772.557169,-0.075000,0.021651
772.590727,-0.025000,0.181573
772.624285,-0.100000,0.127475
772.657843,0.100000,0.070711
772.691401,-0.350000,0.075000
772.724958,-0.125000,0.041458
772.758515,-0.075000,0.064952
772.792072,0.200000,0.061237
772.825629,0.300000,0.266927
772.859185,0.125000,0.021651
772.892741,-0.075000,0.181573
772.926297,0.325000,0.310996
772.959853,-0.075000,0.021651
772.993408,-0.675000,0.054486
773.026963,-0.075000,0.147373
773.060518,0.225000,0.188331
773.094073,0.275000,0.238157
773.127627,-0.200000,0.061237
773.161181,0.000000,0.035355
773.194735,0.175000,0.181573
773.228289,0.250000,0.175000
773.261842,0.100000,0.093541
773.295395,-0.025000,0.054486
773.328948,0.275000,0.163459
773.362500,0.050000,0.043301
773.396053,0.275000,0.240767
773.429605,0.125000,0.167239
773.463157,0.550000,0.294746
773.496708,0.075000,0.021651
773.530260,-0.050000,0.134629
773.563811,-0.275000,0.089268
773.597361,-0.200000,0.000000
773.630912,0.150000,0.163936
773.664462,0.050000,0.055902
773.698012,-0.125000,0.021651
773.731562,0.050000,0.090139
773.765111,0.125000,0.021651
773.798661,0.400000,0.093541
773.832210,0.225000,0.147373
773.865758,0.325000,0.155624
773.899307,0.200000,0.196850
773.932855,0.075000,0.064952
773.966403,-0.075000,0.194856
773.999951,0.350000,0.321131
774.033498,-0.050000,0.055902
774.067046,0.200000,0.061237
774.100593,0.150000,0.043301
774.134139,0.225000,0.021651
774.167686,0.050000,0.055902
774.201232,0.175000,0.073951
774.234778,0.025000,0.041458
774.268324,0.000000,0.061237
774.301869,0.025000,0.096014
774.335414,-0.175000,0.113880
774.368959,0.000000,0.061237
774.402504,0.225000,0.207289
774.436048,-0.100000,0.136931
774.469592,0.225000,0.167239
774.503136,0.200000,0.276134
774.536680,0.075000,0.210283
774.570223,0.200000,0.122474
774.603766,0.300000,0.106066
774.637309,0.425000,0.155624
774.670852,0.225000,0.198037
774.704394,-0.050000,0.114564
774.737936,-0.200000,0.106066
774.771478,-0.125000,0.041458
774.805020,0.500000,0.162019
774.838561,0.125000,0.113880
774.872102,0.025000,0.021651
774.905643,0.125000,0.073951
774.939183,0.325000,0.113880
774.972724,0.325000,0.170935
775.006264,0.475000,0.391112
775.039804,0.400000,0.293684
775.073343,-0.275000,0.021651
775.106882,0.025000,0.216145
775.140421,0.075000,0.081968
775.173960,-0.575000,0.064952
775.207499,-0.175000,0.124373
775.241037,0.075000,0.064952
775.274575,-0.025000,0.041458
775.308113,0.025000,0.041458
775.341650,0.425000,0.283670
775.375187,0.075000,0.054486
775.408724,0.025000,0.073951
775.442261,-0.275000,0.041458
775.475798,0.250000,0.235850
775.509334,0.100000,0.086603
775.542870,-0.025000,0.096014
775.576405,-0.250000,0.055902
775.609941,0.075000,0.073951
775.643476,0.000000,0.035355
775.677011,-0.425000,0.081968
775.710546,0.275000,0.054486
775.744080,0.050000,0.055902
775.777614,-0.025000,0.073951
775.811148,-0.100000,0.117260
775.844682,-0.225000,0.064952
775.878215,0.100000,0.061237
775.911748,0.025000,0.073951
775.945281,0.275000,0.188331
775.978814,-0.325000,0.089268
776.012346,-0.100000,0.145774
776.045878,0.100000,0.035355
776.079410,0.150000,0.025000
776.112941,0.325000,0.151554
776.146473,-0.150000,0.075000
776.180004,-0.200000,0.035355
776.213535,0.150000,0.090139
776.247065,0.150000,0.103078
776.280595,0.100000,0.035355
776.314125,0.300000,0.050000
776.347655,-0.100000,0.106066
776.381185,-0.350000,0.043301
776.414714,0.100000,0.061237
776.448243,0.000000,0.150000
776.481772,0.375000,0.021651
776.515300,0.375000,0.119242
776.548828,-0.000000,0.093541
776.582356,-0.000000,0.187083
776.615884,0.200000,0.187083
776.649411,0.050000,0.114564
776.682938,-0.050000,0.103078
776.716465,-0.075000,0.089268
776.749992,0.125000,0.102317
776.783518,0.550000,0.235850
776.817044,0.200000,0.079057
776.850570,0.450000,0.477624
776.884096,0.000000,0.079057
776.917621,-0.125000,0.021651
776.951146,0.050000,0.075000
776.984671,-0.600000,0.035355
777.018196,0.125000,0.188331
777.051720,0.550000,0.394493
777.085244,0.200000,0.050000
777.118768,-0.100000,0.206155
777.152292,0.050000,0.025000
777.185815,0.100000,0.127475
777.219338,0.025000,0.124373
777.252861,0.225000,0.119242
777.286383,-0.175000,0.041458
777.319905,-0.050000,0.143614
777.353427,0.050000,0.025000
777.386949,0.100000,0.035355
777.420471,0.175000,0.054486
777.453992,0.150000,0.025000
777.487513,0.275000,0.073951
777.521033,-0.450000,0.043301
777.554554,-0.300000,0.079057
777.588074,0.225000,0.081968
777.621594,0.050000,0.043301
777.655114,0.250000,0.075000
777.688633,0.250000,0.043301
777.722152,0.275000,0.151554
777.755671,0.025000,0.096014
777.789190,-0.000000,0.093541
777.822708,-0.225000,0.073951
777.856226,0.275000,0.181573
777.889744,-0.025000,0.064952
777.923261,0.600000,0.252488
777.956779,0.075000,0.021651
777.990296,0.100000,0.061237
778.023812,0.150000,0.075000
778.057329,-0.125000,0.096014
778.090845,0.100000,0.061237
778.124361,0.025000,0.021651
778.157877,0.325000,0.253414
778.191392,0.200000,0.259808
778.224908,0.275000,0.163459
778.258423,0.200000,0.127475
778.291937,0.000000,0.061237
778.325452,0.050000,0.025000
778.358966,0.050000,0.108972
778.392480,-0.075000,0.054486
778.425993,-0.050000,0.055902
778.459507,0.150000,0.108972
778.493020,-0.100000,0.050000
778.526533,-0.125000,0.064952
778.560045,-0.400000,0.127475
778.593558,-0.100000,0.050000
778.627070,-0.275000,0.081968
778.660582,0.325000,0.198037
778.694093,0.125000,0.064952
778.727605,-0.125000,0.089268
778.761116,-0.000000,0.093541
778.794626,0.125000,0.054486
778.828137,0.125000,0.081968
778.861647,0.075000,0.096014
778.895157,0.275000,0.096014
778.928667,0.125000,0.181573
778.962176,0.275000,0.181573
778.995686,0.025000,0.054486
779.029194,0.200000,0.070711
779.062703,0.125000,0.138632
779.096212,0.075000,0.073951
779.129720,0.050000,0.025000
779.163228,-0.150000,0.055902
779.196735,0.325000,0.397453
779.230243,-0.750000,0.075000
779.263750,-0.075000,0.054486
779.297257,-0.050000,0.055902
779.330763,0.000000,0.035355
779.364269,0.125000,0.096014
779.397776,0.000000,0.035355
779.431281,0.050000,0.043301
779.464787,0.150000,0.025000
779.498292,0.175000,0.073951
779.531797,0.250000,0.160078
779.565302,0.100000,0.093541
779.598806,0.100000,0.117260
779.632311,0.075000,0.089268
779.665814,0.425000,0.369755
779.699318,0.200000,0.035355
779.732822,0.175000,0.041458
779.766325,0.175000,0.108253
779.799828,0.125000,0.108253
779.833330,0.125000,0.073951
779.866833,-0.075000,0.081968
779.900335,0.425000,0.174553
779.933837,0.050000,0.025000
779.967338,-0.150000,0.025000
780.000840,-0.150000,0.082916
780.034341,-0.200000,0.061237
780.067841,0.275000,0.113880
780.101342,0.025000,0.054486
780.134842,0.150000,0.025000
780.168342,-0.325000,0.108253
780.201842,0.225000,0.073951
780.235341,0.750000,0.505594
780.268841,0.050000,0.152069
780.302340,-0.150000,0.090139
780.335838,0.100000,0.035355
780.369337,-0.175000,0.054486
780.402835,0.000000,0.070711
780.436333,0.250000,0.114564
780.469830,0.275000,0.108253
780.503328,0.375000,0.240767
780.536825,0.200000,0.035355
780.570322,0.050000,0.082916
780.603818,-0.025000,0.096014
780.637315,-0.150000,0.114564
780.670811,-0.075000,0.054486
780.704306,-0.125000,0.096014
780.737802,0.025000,0.064952
780.771297,-0.050000,0.025000
780.804792,0.050000,0.043301
780.838287,0.050000,0.055902
780.871781,0.075000,0.134048
780.905276,-0.100000,0.141421
780.938770,-0.350000,0.043301
780.972263,0.425000,0.290205
781.005757,0.325000,0.147373
781.039250,0.250000,0.219374
781.072743,0.275000,0.089268
781.106235,0.025000,0.073951
781.139728,0.075000,0.184983
781.173220,0.275000,0.134048
781.206712,0.125000,0.064952
781.240203,-0.075000,0.064952
781.273694,0.075000,0.073951
781.307185,-0.050000,0.055902
781.340676,-0.050000,0.055902
781.374167,0.150000,0.055902
781.407657,0.200000,0.093541
781.441147,-0.075000,0.041458
781.474636,0.150000,0.108972
781.508126,0.150000,0.235850
781.541615,0.575000,0.557197
781.575104,0.350000,0.114564
781.608593,0.275000,0.155624
781.642081,-0.125000,0.021651
781.675569,-0.150000,0.103078
781.709057,0.000000,0.117260
781.742544,0.075000,0.021651
781.776032,-0.075000,0.064952
781.809519,-0.125000,0.073951
781.843006,0.325000,0.143069
781.876492,0.100000,0.035355
781.909978,0.100000,0.035355
781.943464,0.100000,0.070711
781.976950,0.025000,0.041458
782.010435,0.125000,0.073951
782.043921,0.450000,0.195256
782.077406,-0.050000,0.055902
782.110890,0.125000,0.073951
782.144375,-0.025000,0.073951
782.177859,0.125000,0.054486
782.211343,-0.150000,0.043301
782.244826,0.450000,0.075000
782.278309,0.350000,0.103078
782.311792,-0.100000,0.117260
782.345275,0.075000,0.064952
782.378758,0.100000,0.127475
782.412240,0.050000,0.175000
782.445722,-0.175000,0.089268
782.479204,0.100000,0.070711
782.512685,-0.275000,0.089268
782.546166,0.100000,0.079057
782.579647,0.025000,0.054486
782.613128,0.275000,0.119242
782.646608,-0.075000,0.041458
782.680088,0.150000,0.090139
782.713568,-0.125000,0.155624
782.747048,0.275000,0.227418
782.780527,-0.075000,0.224653
782.814006,-0.075000,0.089268
782.847485,0.050000,0.103078
782.880963,-0.025000,0.167239
782.914442,-0.175000,0.073951
782.947920,-0.100000,0.035355
782.981397,0.225000,0.174553
783.014875,0.125000,0.113880
783.048352,-0.050000,0.090139
783.081829,0.125000,0.227418
783.115306,-0.075000,0.054486
783.148782,-0.050000,0.025000
783.182258,0.250000,0.305164
783.215734,0.075000,0.021651
783.249209,-0.250000,0.075000
783.282685,0.450000,0.129904
783.316160,0.400000,0.154110
783.349635,0.050000,0.043301
783.383109,-0.100000,0.061237
783.416583,-0.050000,0.075000
783.450057,-0.075000,0.108253
783.483531,0.000000,0.154110
783.517004,0.825000,0.400586
783.550477,0.475000,0.240767
783.583950,0.400000,0.209165
783.617423,0.175000,0.155624
783.650895,0.075000,0.041458
783.684367,-0.100000,0.061237
783.717839,-0.725000,0.089268
783.751311,0.000000,0.093541
783.784782,0.300000,0.111803
783.818253,0.100000,0.206155
783.851724,0.050000,0.055902
783.885194,0.300000,0.176777
783.918665,-0.075000,0.064952
783.952134,0.175000,0.073951
783.985604,0.400000,0.262202
784.019074,0.250000,0.075000
784.052543,0.125000,0.108253
784.086012,-0.075000,0.096014
784.119480,0.100000,0.106066
784.152948,0.450000,0.108972
784.186416,0.200000,0.242384
784.219884,-0.150000,0.025000
784.253352,0.400000,0.183712
784.286819,-0.050000,0.134629
784.320286,0.025000,0.021651
784.353753,0.000000,0.035355
784.387219,0.025000,0.041458
784.420685,0.175000,0.021651
784.454151,0.025000,0.096014
784.487617,-0.225000,0.021651
784.521082,-0.100000,0.070711
784.554547,0.200000,0.117260
784.588012,0.100000,0.136931
784.621477,0.100000,0.136931
784.654941,0.250000,0.134629
784.688405,0.600000,0.206155
784.721869,0.175000,0.102317
784.755332,-0.200000,0.061237
784.788795,0.000000,0.061237
784.822258,0.575000,0.245904
784.855721,0.400000,0.237171
784.889183,-0.025000,0.041458
784.922646,0.075000,0.113880
784.956107,0.125000,0.073951
784.989569,-0.250000,0.082916
785.023030,-0.050000,0.167705
785.056491,0.025000,0.138632
785.089952,0.100000,0.070711
785.123413,-0.025000,0.041458
785.156873,-0.300000,0.035355
785.190333,0.100000,0.106066
785.223792,0.050000,0.055902
785.257252,0.100000,0.079057
785.290711,-0.050000,0.025000
785.324170,0.025000,0.102317
785.357629,-0.175000,0.064952
785.391087,0.250000,0.090139
785.424545,0.425000,0.369755
785.458003,0.100000,0.050000
785.491460,0.125000,0.167239
785.524918,0.100000,0.093541
785.558375,0.050000,0.055902
785.591831,-0.050000,0.043301
785.625288,-0.175000,0.096014
785.658744,-0.025000,0.081968
785.692200,-0.075000,0.041458
785.725655,0.025000,0.108253
785.759111,0.125000,0.064952
785.792566,0.300000,0.183712
785.826021,0.000000,0.061237
785.859475,-0.200000,0.127475
785.892930,0.175000,0.216145
785.926384,0.000000,0.061237
785.959837,0.250000,0.160078
785.993291,0.425000,0.113880
786.026744,1.775000,0.521266
786.060197,0.500000,0.203101
786.093649,0.225000,0.155624
786.127102,-0.125000,0.096014
786.160554,-0.075000,0.073951
786.194006,-0.100000,0.061237
786.227457,0.100000,0.035355
786.260909,0.100000,0.070711
786.294360,0.200000,0.061237
786.327810,-0.200000,0.035355
786.361261,0.100000,0.035355
786.394711,0.075000,0.073951
786.428161,-0.000000,0.145774
786.461611,0.125000,0.041458
786.495060,0.050000,0.103078
786.528509,-0.150000,0.103078
786.561958,-0.050000,0.055902
786.595407,0.125000,0.089268
786.628855,0.200000,0.035355
786.662303,-0.350000,0.043301
786.695751,-0.075000,0.041458
786.729198,-0.075000,0.021651
786.762645,0.000000,0.035355
786.796092,0.075000,0.102317
786.829539,-0.100000,0.061237
786.862985,-0.125000,0.073951
786.896431,-0.125000,0.089268
786.929877,0.200000,0.000000
786.963323,0.000000,0.000000
786.996768,0.325000,0.054486
787.030213,0.175000,0.089268
787.063658,-0.175000,0.124373
787.097102,-0.150000,0.055902
787.130547,-0.350000,0.043301
787.163991,0.075000,0.304908
787.197434,-0.175000,0.073951
787.230878,0.650000,0.195256
787.264321,0.275000,0.124373
787.297764,-0.025000,0.124373
787.331206,0.125000,0.041458
787.364648,0.175000,0.143069
787.398090,0.450000,0.227761
787.431532,0.175000,0.054486
787.464974,0.000000,0.106066
787.498415,-0.300000,0.035355
787.531856,0.125000,0.096014
787.565296,-0.275000,0.054486
787.598737,0.150000,0.043301
787.632177,0.325000,0.143069
787.665617,-0.100000,0.122474
787.699056,0.550000,0.450694
787.732496,-0.300000,0.070711
787.765935,0.100000,0.061237
787.799373,0.225000,0.167239
787.832812,0.175000,0.210283
787.866250,-0.050000,0.103078
787.899688,1.000000,0.269258
787.933126,0.475000,0.188331
787.966563,0.075000,0.073951
788.000000,0.175000,0.021651
788.033437,0.000000,0.127475
788.066873,-0.050000,0.055902
788.100310,0.100000,0.035355
788.133746,0.200000,0.061237
788.167181,0.075000,0.089268
788.200617,0.325000,0.143069
788.234052,0.325000,0.041458
788.267487,-0.025000,0.064952
788.300921,0.325000,0.219018
788.334356,0.225000,0.113880
788.367790,0.075000,0.102317
788.401224,0.725000,0.603505
788.434657,0.200000,0.318198
788.468090,-0.100000,0.050000
788.501523,0.150000,0.055902
788.534956,0.150000,0.129904
788.568389,-0.025000,0.096014
788.601821,0.050000,0.055902
788.635253,0.300000,0.111803
788.668684,0.000000,0.093541
788.702116,-0.050000,0.043301
788.735547,-0.100000,0.231840
788.768977,0.000000,0.035355
788.802408,0.275000,0.134048
788.835838,-0.025000,0.108253
788.869268,0.025000,0.054486
788.902698,0.100000,0.070711
788.936127,-0.050000,0.055902
788.969556,0.525000,0.328586
789.002985,0.075000,0.041458
789.036414,0.175000,0.096014
789.069842,-0.175000,0.021651
789.103270,0.025000,0.064952
789.136698,0.050000,0.075000
789.170125,0.125000,0.102317
789.203552,0.050000,0.134629
789.236979,0.300000,0.070711
789.270406,-0.000000,0.176777
789.303832,0.125000,0.041458
789.337258,-0.150000,0.055902
789.370684,0.175000,0.134048
789.404110,0.025000,0.054486
789.437535,0.050000,0.043301
789.470960,0.225000,0.151554
789.504385,0.075000,0.073951
789.537809,0.050000,0.055902
789.571233,0.000000,0.070711
789.604657,0.000000,0.061237
789.638081,0.300000,0.117260
789.671504,0.600000,0.169558
789.704927,0.825000,0.265460
789.738350,1.025000,0.265460
789.771772,0.475000,0.210283
789.805195,0.300000,0.234521
789.838617,-0.075000,0.041458
789.872038,0.300000,0.136931
789.905460,-0.600000,0.111803
789.938881,0.175000,0.108253
789.972302,0.150000,0.309233
790.005722,0.200000,0.136931
790.039143,0.000000,0.035355
790.072563,-0.075000,0.054486
790.105982,-0.025000,0.073951
790.139402,0.175000,0.073951
790.172821,0.000000,0.176777
790.206240,0.225000,0.188331
790.239658,0.150000,0.055902
790.273077,0.175000,0.073951
790.306495,-0.225000,0.073951
790.339913,0.425000,0.129301
790.373330,0.150000,0.090139
790.406747,0.075000,0.073951
790.440164,-0.100000,0.000000
790.473581,0.075000,0.073951
790.506997,0.000000,0.035355
790.540414,-0.150000,0.055902
790.573829,0.150000,0.103078
790.607245,0.000000,0.061237
790.640660,-0.125000,0.054486
790.674075,0.150000,0.082916
790.707490,0.000000,0.154110
790.740904,0.150000,0.043301
790.774319,0.125000,0.138632
790.807733,0.100000,0.111803
790.841146,-0.050000,0.055902
790.874560,-0.375000,0.064952
790.907973,0.025000,0.021651
790.941385,0.200000,0.061237
790.974798,0.000000,0.061237
791.008210,0.700000,0.289396
791.041622,-0.125000,0.073951
791.075034,0.100000,0.070711
791.108445,0.400000,0.262202
791.141856,0.250000,0.055902
791.175267,0.500000,0.413824
791.208678,0.050000,0.082916
791.242088,0.050000,0.055902
791.275498,0.075000,0.041458
791.308908,0.100000,0.061237
791.342317,0.100000,0.070711
791.375726,0.000000,0.061237
791.409135,0.100000,0.154110
791.442544,-0.450000,0.043301
791.475952,0.400000,0.093541
791.509360,1.775000,0.730047
791.542768,1.225000,0.673958
791.576176,1.575000,0.571593
791.609583,2.300000,0.596867
791.642990,2.325000,0.536627
791.676396,0.700000,0.322102
791.709803,0.400000,0.158114
791.743209,0.200000,0.165831
791.776615,0.150000,0.090139
791.810020,0.125000,0.081968
791.843425,-0.050000,0.090139
791.876830,-0.450000,0.108972
791.910235,0.150000,0.114564
791.943640,-0.150000,0.055902
791.977044,-0.275000,0.113880
792.010448,0.000000,0.122474
792.043851,0.125000,0.096014
792.077254,-0.100000,0.035355
792.110658,0.050000,0.043301
792.144060,-0.100000,0.070711
792.177463,0.150000,0.219374
792.210865,-0.200000,0.035355
792.244267,0.350000,0.160078
792.277668,0.150000,0.082916
792.311070,0.225000,0.108253
792.344471,0.275000,0.064952
792.377872,-0.050000,0.075000
792.411272,-0.050000,0.090139
792.444672,0.000000,0.000000
792.478072,-0.025000,0.119242
792.511472,0.050000,0.167705
792.544871,0.100000,0.035355
792.578271,-0.175000,0.064952
792.611669,0.325000,0.198037
792.645068,-0.050000,0.055902
792.678466,-0.325000,0.064952
792.711864,-0.150000,0.075000
792.745262,0.100000,0.169558
792.778659,-0.225000,0.021651
792.812056,-0.125000,0.041458
792.845453,0.050000,0.055902
792.878850,-0.075000,0.073951
792.912246,0.400000,0.106066
792.945642,0.100000,0.061237
792.979038,0.175000,0.041458
793.012433,0.175000,0.167239
793.045829,0.075000,0.151554
793.079223,-0.075000,0.188331
793.112618,-0.175000,0.096014
793.146012,0.175000,0.124373
793.179406,-0.175000,0.064952
793.212800,-0.225000,0.073951
793.246194,0.250000,0.143614
793.279587,0.150000,0.075000
793.312980,0.125000,0.064952
793.346373,-0.225000,0.073951
793.379765,0.275000,0.224653
793.413157,2.500000,0.700892
793.446549,1.750000,0.481534
793.479940,4.650000,0.598435
793.513332,5.300000,0.463681
793.546723,1.700000,0.613392
793.580113,1.000000,0.728869
793.613504,-0.050000,0.108972
793.646894,-0.300000,0.127475
793.680284,0.650000,0.328824
793.713673,0.125000,0.174553
793.747062,-0.025000,0.054486
793.780451,0.050000,0.090139
793.813840,0.075000,0.041458
793.847228,0.125000,0.081968
793.880617,-0.075000,0.041458
793.914004,0.000000,0.117260
793.947392,-0.000000,0.203101
793.980779,0.175000,0.267804
794.014166,-0.300000,0.050000
794.047553,-0.050000,0.055902
794.080940,0.175000,0.041458
794.114326,0.075000,0.054486
794.147712,-0.075000,0.041458
794.181097,0.050000,0.090139
794.214483,0.000000,0.061237
794.247868,0.225000,0.174553
794.281252,0.375000,0.267804
794.314637,0.175000,0.198037
794.348021,0.225000,0.174553
794.381405,0.025000,0.041458
794.414788,0.050000,0.090139
794.448172,0.000000,0.070711
794.481555,-0.025000,0.113880
794.514938,-0.050000,0.103078
794.548320,-0.225000,0.021651
794.581702,0.225000,0.230149
794.615084,0.150000,0.125000
794.648466,0.075000,0.021651
794.681847,0.075000,0.054486
794.715228,-0.325000,0.243349
794.748609,-0.025000,0.124373
794.781990,-0.350000,0.439460
794.815370,0.325000,0.194856
794.848750,-0.075000,0.096014
794.882129,-0.250000,0.134629
794.915509,0.175000,0.102317
794.948888,-0.375000,0.041458
794.982267,0.200000,0.093541
795.015645,-0.275000,0.021651
795.049023,0.150000,0.025000
795.082401,0.200000,0.136931
795.115779,-0.050000,0.043301
795.149156,-0.150000,0.075000
795.182534,0.225000,0.064952
795.215910,0.050000,0.025000
795.249287,0.825000,0.300780
795.282663,1.150000,0.270416
795.316039,3.125000,0.355976
795.349415,4.800000,0.754155
795.382790,7.225000,0.602469
795.416165,4.900000,0.684653
795.449540,1.900000,0.196850
795.482915,0.500000,0.165831
795.516289,0.275000,0.151554
795.549663,-0.050000,0.090139
795.583037,0.525000,0.155624
795.616410,0.150000,0.055902
795.649783,0.075000,0.129301
795.683156,0.175000,0.108253
795.716529,0.175000,0.054486
795.749901,-0.100000,0.127475
795.783273,0.425000,0.369755
795.816645,-0.075000,0.124373
795.850016,0.025000,0.073951
795.883387,0.050000,0.055902
795.916758,0.175000,0.129301
795.950129,0.200000,0.183712
795.983499,-0.200000,0.050000
796.016869,0.050000,0.025000
796.050239,-0.375000,0.129301
796.083608,0.425000,0.198037
796.116977,0.075000,0.089268
796.150346,-0.275000,0.181573
796.183714,0.175000,0.124373
796.217083,0.100000,0.061237
796.250451,-0.100000,0.061237
796.283818,0.125000,0.021651
796.317186,0.025000,0.102317
796.350553,0.175000,0.102317
796.383920,-0.275000,0.073951
796.417286,0.600000,0.314245
796.450653,-0.225000,0.054486
796.484019,0.150000,0.025000
796.517384,-0.075000,0.054486
796.550750,0.225000,0.113880
796.584115,0.300000,0.061237
796.617480,0.025000,0.041458
796.650844,-0.125000,0.041458
796.684209,-0.050000,0.055902
796.717573,0.175000,0.326678
796.750936,0.150000,0.025000
796.784300,0.225000,0.081968
796.817663,-0.050000,0.025000
796.851026,0.100000,0.127475
796.884388,-0.250000,0.055902
796.917751,1.025000,0.336108
796.951113,-0.175000,0.089268
796.984474,0.025000,0.113880
797.017836,-0.050000,0.055902
797.051197,0.025000,0.081968
797.084558,0.275000,0.270127
797.117918,0.700000,0.183712
797.151279,0.150000,0.134629
797.184639,2.050000,0.508060
797.217998,3.900000,0.690109
797.251358,7.125000,0.624875
797.284717,10.475000,1.843697
797.318076,5.800000,0.836660
797.351434,1.925000,0.616821
797.384793,0.400000,0.079057
797.418151,0.750000,0.332603
797.451508,0.550000,0.361421
797.484866,0.225000,0.108253
797.518223,0.300000,0.086603
797.551580,0.050000,0.129904
797.584936,0.025000,0.108253
797.618292,0.300000,0.266927
797.651648,0.250000,0.129904
797.685004,-0.050000,0.043301
797.718360,-0.000000,0.093541
797.751715,0.125000,0.073951
797.785069,0.450000,0.163936
797.818424,0.025000,0.096014
797.851778,0.850000,0.527376
797.885132,-0.400000,0.093541
797.918486,0.275000,0.163459
797.951839,-0.050000,0.114564
797.985192,0.250000,0.152069
798.018545,0.350000,0.192029
798.051898,0.175000,0.124373
798.085250,-0.100000,0.061237
798.118602,-0.025000,0.064952
798.151954,-0.300000,0.061237
798.185305,-0.075000,0.089268
798.218656,0.050000,0.075000
798.252007,0.275000,0.102317
798.285357,0.375000,0.096014
798.318708,-0.025000,0.216145
798.352057,0.100000,0.117260
798.385407,0.150000,0.082916
798.418756,0.125000,0.207289
798.452106,0.075000,0.096014
798.485454,-0.175000,0.064952
798.518803,0.125000,0.054486
798.552151,-0.050000,0.090139
798.585499,0.125000,0.113880
798.618847,-0.200000,0.061237
798.652194,0.075000,0.054486
798.685541,0.250000,0.025000
798.718888,0.225000,0.147373
798.752234,0.050000,0.129904
798.785580,0.325000,0.113880
798.818926,0.400000,0.215058
798.852272,0.050000,0.103078
798.885617,-0.325000,0.089268
798.918962,0.200000,0.079057
798.952307,-0.025000,0.054486
798.985651,0.025000,0.021651
799.018996,0.175000,0.081968
799.052339,0.575000,0.073951
799.085683,3.425000,0.848804
799.119026,7.775000,0.412879
799.152369,12.700000,1.595697
799.185712,17.025000,0.308980
799.219054,11.125000,1.666349
799.252397,3.950000,0.757050
799.285738,0.225000,0.073951
799.319080,0.125000,0.124373
799.352421,0.425000,0.129301
799.385762,0.125000,0.054486
799.419103,-0.000000,0.106066
799.452443,0.175000,0.124373
799.485783,0.400000,0.145774
799.519123,0.225000,0.054486
799.552463,-0.000000,0.176777
799.585802,0.075000,0.041458
799.619141,0.125000,0.064952
799.652480,-0.250000,0.103078
799.685818,-0.225000,0.041458
799.719156,0.200000,0.206155
799.752494,0.200000,0.093541
799.785831,0.075000,0.041458
799.819169,0.025000,0.054486
799.852506,-0.150000,0.055902
799.885842,-0.225000,0.021651
799.919179,0.000000,0.127475
799.952515,0.100000,0.000000
799.985850,0.325000,0.253414
800.019186,-0.100000,0.035355
800.052521,0.125000,0.064952
800.085856,0.200000,0.079057
800.119191,0.600000,0.237171
800.152525,0.100000,0.061237
800.185859,0.150000,0.055902
800.219193,0.075000,0.054486
800.252526,0.150000,0.114564
800.285859,0.075000,0.073951
800.319192,0.250000,0.090139
800.352525,0.925000,0.489100
800.385857,0.525000,0.318934
800.419189,0.200000,0.061237
800.452521,0.225000,0.064952
800.485852,0.100000,0.061237
800.519183,-0.175000,0.167239
800.552514,-0.150000,0.055902
800.585844,-0.750000,0.227761
800.619175,0.700000,0.196850
800.652505,0.625000,0.316968
800.685834,0.425000,0.232849
800.719164,-0.075000,0.041458
800.752493,0.100000,0.061237
800.785821,0.275000,0.064952
800.819150,0.300000,0.212132
800.852478,0.200000,0.136931
800.885806,0.675000,0.415895
800.919134,0.700000,0.154110
800.952461,0.675000,0.283670
800.985788,4.675000,0.743619
801.019115,14.275000,1.766485
801.052441,32.725000,2.405560
801.085767,38.750000,1.825000
801.119093,41.800000,1.675933
801.152419,13.850000,0.859142
801.185744,3.850000,0.656220
801.219069,0.725000,0.041458
801.252394,0.125000,0.073951
801.285718,0.050000,0.103078
801.319042,0.350000,0.207666
801.352366,-0.125000,0.134048
801.385690,0.375000,0.304908
801.419013,-0.625000,0.102317
801.452336,0.150000,0.294746
801.485658,-0.325000,0.096014
801.518981,1.025000,0.383039
801.552303,0.200000,0.127475
801.585625,0.050000,0.055902
801.618946,-0.150000,0.075000
801.652267,-0.025000,0.124373
801.685588,0.100000,0.162019
801.718909,0.125000,0.147373
801.752229,0.200000,0.061237
801.785549,0.025000,0.021651
801.818869,0.000000,0.035355
801.852188,-0.125000,0.073951
801.885507,0.150000,0.129904
801.918826,0.275000,0.021651
801.952145,-0.125000,0.096014
801.985463,-0.050000,0.125000
802.018781,0.475000,0.272431
802.052099,0.350000,0.182003
802.085416,0.175000,0.184983
802.118733,0.100000,0.035355
802.152050,0.150000,0.125000
802.185366,0.350000,0.175000
802.218683,0.125000,0.054486
802.251999,0.050000,0.075000
802.285314,0.150000,0.256174
802.318630,0.275000,0.119242
802.351945,0.075000,0.108253
802.385259,0.100000,0.035355
802.418574,-0.075000,0.096014
802.451888,0.375000,0.184983
802.485202,0.450000,0.256174
802.518515,-0.050000,0.129904
802.551829,0.300000,0.183712
802.585142,0.350000,0.143614
802.618454,0.300000,0.106066
802.651767,0.275000,0.096014
802.685079,-0.550000,0.192029
802.718391,0.350000,0.163936
802.751702,0.375000,0.224653
802.785013,0.100000,0.070711
802.818324,0.275000,0.129301
802.851635,0.075000,0.096014
802.884945,0.750000,0.246221
802.918255,7.950000,0.772577
802.951565,28.675000,0.708321
802.984874,52.450000,0.691466
803.018184,61.133333,1.364429
803.051492,42.250000,3.007179
803.084801,9.700000,1.382480
803.118109,2.325000,0.698548
803.151417,-0.125000,0.054486
803.184725,0.425000,0.081968
803.218032,0.175000,0.041458
803.251339,0.275000,0.143069
803.284646,-0.025000,0.041458
803.317953,0.050000,0.219374
803.351259,-0.225000,0.216145
803.384565,-0.125000,0.064952
803.417870,0.050000,0.025000
803.451176,0.250000,0.114564
803.484481,0.350000,0.129904
803.517786,0.400000,0.127475
803.551090,0.100000,0.035355
803.584394,0.075000,0.108253
803.617698,-0.125000,0.096014
803.651002,-0.200000,0.035355
803.684305,0.050000,0.167705
803.717608,0.000000,0.050000
803.750910,-0.375000,0.021651
803.784213,0.275000,0.108253
803.817515,0.550000,0.230489
803.850817,-0.100000,0.176777
803.884118,0.000000,0.035355
803.917419,0.350000,0.075000
803.950720,0.575000,0.167239
803.984021,0.425000,0.265460
804.017321,0.375000,0.073951
804.050621,0.950000,0.823483
804.083921,0.025000,0.113880
804.117220,0.150000,0.114564
804.150519,0.300000,0.093541
804.183818,0.350000,0.082916
804.217117,-0.275000,0.041458
804.250415,0.100000,0.079057
804.283713,0.225000,0.089268
804.317011,0.325000,0.281458
804.350308,0.400000,0.093541
804.383605,0.050000,0.075000
804.416902,0.300000,0.086603
804.450198,0.750000,0.207666
804.483494,0.625000,0.270127
804.516790,0.425000,0.143069
804.550086,0.175000,0.119242
804.583381,-0.200000,0.136931
804.616676,0.250000,0.134629
804.649971,0.125000,0.021651
804.683265,-0.000000,0.176777
804.716559,-0.300000,0.000000
804.749853,0.200000,0.061237
804.783146,0.375000,0.227418
804.816440,1.550000,0.163936
804.849732,14.725000,2.105758
804.883025,50.875000,1.263119
804.916317,79.575000,3.931980
804.949609,96.175000,1.616468
804.982901,61.250000,3.556420
805.016192,15.750000,0.632949
805.049484,3.500000,0.451387
805.082774,-0.225000,0.163459
805.116065,0.175000,0.021651
805.149355,0.225000,0.143069
805.182645,0.500000,0.247487
805.215935,0.225000,0.167239
805.249224,0.200000,0.061237
805.282513,0.075000,0.210283
805.315802,0.200000,0.086603
805.349090,0.175000,0.081968
805.382378,0.125000,0.073951
805.415666,0.300000,0.127475
805.448954,0.100000,0.079057
805.482241,0.650000,0.402337
805.515528,0.200000,0.173205
805.548815,0.700000,0.358818
805.582101,0.325000,0.124373
805.615387,0.375000,0.245904
805.648673,0.050000,0.075000
805.681958,0.100000,0.162019
805.715243,0.850000,0.251247
805.748528,0.350000,0.114564
805.781813,-0.175000,0.073951
805.815097,0.600000,0.220794
805.848381,-0.500000,0.035355
805.881665,-0.075000,0.089268
805.914948,0.425000,0.096014
805.948231,0.425000,0.191621
805.981514,-0.075000,0.054486
806.014796,0.175000,0.073951
806.048079,0.450000,0.103078
806.081360,-0.150000,0.114564
806.114642,0.125000,0.021651
806.147923,0.250000,0.114564
806.181204,-0.050000,0.075000
806.214485,0.025000,0.405239
806.247765,-0.125000,0.021651
806.281046,0.550000,0.227761
806.314325,0.300000,0.293684
806.347605,0.225000,0.198037
806.380884,-0.475000,0.232849
806.414163,0.475000,0.276981
806.447441,0.100000,0.127475
806.480720,-0.175000,0.113880
806.513998,0.275000,0.181573
806.547275,0.750000,0.160078
806.580553,0.550000,0.055902
806.613830,0.150000,0.167705
806.647107,0.675000,0.143069
806.680383,0.425000,0.306951
806.713659,0.675000,0.296595
806.746935,1.950000,0.656220
806.780211,11.025000,2.041866
806.813486,55.875000,2.412824
806.846761,141.425000,2.736187
806.880036,196.625000,6.367631
806.913310,168.175000,5.320523
806.946584,59.675000,3.004034
806.979858,8.600000,0.800781
807.013132,1.125000,0.355976
807.046405,0.300000,0.111803
807.079678,0.625000,0.466871
807.112951,0.075000,0.054486
807.146223,-0.050000,0.055902
807.179495,-0.050000,0.108972
807.212767,-0.525000,0.081968
807.246038,0.300000,0.377492
807.279309,0.025000,0.108253
807.312580,0.300000,0.302076
807.345850,-0.300000,0.061237
807.379121,-0.300000,0.000000
807.412390,0.075000,0.096014
807.445660,0.200000,0.162019
807.478929,0.000000,0.050000
807.512198,0.100000,0.070711
807.545467,-0.025000,0.089268
807.578735,0.050000,0.055902
807.612004,-0.600000,0.162019
807.645271,-0.050000,0.025000
807.678539,-0.325000,0.108253
807.711806,0.275000,0.248433
807.745073,0.050000,0.147902
807.778340,-0.175000,0.064952
807.811606,0.575000,0.181573
807.844872,1.000000,0.169558
807.878138,0.600000,0.410792
807.911403,-0.225000,0.073951
807.944668,0.700000,0.318198
807.977933,0.400000,0.252488
808.011197,0.450000,0.279508
808.044462,0.600000,0.220794
808.077725,0.050000,0.195256
808.110989,0.325000,0.221853
808.144252,0.350000,0.082916
808.177515,1.000000,0.169558
808.210778,0.450000,0.268095
808.244040,0.500000,0.335410
808.277302,-0.100000,0.190394
808.310564,0.725000,0.328586
808.343826,0.575000,0.073951
808.377087,-0.125000,0.021651
808.410348,0.350000,0.090139
808.443608,0.625000,0.064952
808.476869,0.375000,0.113880
808.510129,-0.025000,0.054486
808.543388,1.075000,0.397453
808.576648,0.700000,0.117260
808.609907,0.300000,0.269258
808.643165,0.575000,0.240767
808.676424,1.450000,0.361421
808.709682,4.525000,0.944970
808.742940,42.125000,1.740824
808.776197,167.275000,3.629286
808.809455,284.725000,9.762452
808.842712,305.725000,10.267995
808.875968,178.266667,1.302082
808.909225,31.400000,2.666224
808.942481,6.650000,1.168600
808.975736,0.475000,0.348882
809.008992,0.075000,0.129301
809.042247,0.200000,0.183712
809.075502,0.175000,0.235518
809.108756,-0.775000,0.138632
809.142011,0.300000,0.173205
809.175265,0.000000,0.154110
809.208518,0.150000,0.025000
809.241772,0.175000,0.041458
809.275025,0.300000,0.276134
809.308277,0.200000,0.145774
809.341530,0.250000,0.114564
809.374782,0.725000,0.432110
809.408034,0.425000,0.201168
809.441285,-0.350000,0.090139
809.474536,-0.425000,0.216145
809.507787,0.075000,0.279229
809.541038,0.125000,0.207289
809.574288,-0.075000,0.129301
809.607538,0.125000,0.155624
809.640788,0.100000,0.106066
809.674037,0.850000,0.256174
809.707286,0.550000,0.378319
809.740535,0.725000,0.324760
809.773783,0.625000,0.143069
809.807032,0.175000,0.143069
809.840279,0.500000,0.440170
809.873527,0.300000,0.035355
809.906774,0.725000,0.255869
809.940021,0.300000,0.106066
809.973268,0.400000,0.145774
810.006514,-0.150000,0.075000
810.039760,0.425000,0.322829
810.073006,0.575000,0.263095
810.106251,0.525000,0.486538
810.139497,0.225000,0.041458
810.172741,0.250000,0.114564
810.205986,0.725000,0.470870
810.239230,-0.450000,0.134629
810.272474,0.875000,0.306951
810.305718,1.650000,0.450694
810.338961,0.925000,0.791656
810.372204,0.050000,0.268095
810.405447,0.550000,0.294746
810.438689,0.375000,0.330483
810.471931,0.300000,0.117260
810.505173,0.250000,0.227761
810.538414,0.425000,0.089268
810.571656,1.375000,0.324760
810.604897,1.300000,0.293684
810.638137,2.475000,0.929634
810.671377,12.800000,0.856592
810.704617,94.850000,3.785746
810.737857,384.150000,3.743745
810.771096,588.325000,3.630147
810.804335,581.125000,4.790795
810.837574,302.625000,7.037078
810.870813,45.850000,4.215077
810.904051,8.875000,1.227994
810.937288,2.350000,0.633936
810.970526,0.825000,0.355976
811.003763,-0.175000,0.129301
811.037000,-0.175000,0.073951
811.070237,-0.050000,0.182003
811.103473,0.200000,0.254951
811.136709,-0.250000,0.219374
811.169945,-0.050000,0.248747
811.203180,0.250000,0.125000
811.236415,0.100000,0.035355
811.269650,-0.025000,0.096014
811.302884,-0.075000,0.096014
811.336119,0.200000,0.280624
811.369352,0.150000,0.114564
811.402586,-0.250000,0.152069
811.435819,-1.375000,0.191621
811.469052,0.025000,0.383039
811.502285,0.050000,1.184008
811.535517,1.275000,0.912671
811.568749,-0.325000,0.993966
811.601981,0.625000,0.522464
811.635212,-0.075000,0.213234
811.668443,-0.025000,0.147373
811.701674,0.850000,0.279508
811.734905,0.025000,0.216145
811.768135,0.300000,0.419821
811.801365,0.275000,0.216145
811.834594,0.275000,0.283670
811.867824,0.525000,0.411362
811.901053,-0.175000,0.081968
811.934281,-0.200000,0.237171
811.967510,0.250000,0.258602
812.000738,-0.050000,0.114564
812.033965,0.550000,0.328824
812.067193,0.275000,0.454663
812.100420,0.125000,0.201168
812.133647,-0.075000,0.216145
812.166873,-0.950000,0.134629
812.200099,0.425000,0.330483
812.233325,-0.200000,0.061237
812.266551,0.075000,0.167239
812.299776,0.725000,0.412879
812.333001,0.575000,0.021651
812.366226,0.850000,0.414578
812.399450,0.350000,0.082916
812.432674,-0.075000,0.054486
812.465898,-0.425000,0.108253
812.499121,0.350000,0.114564
812.532345,0.100000,0.093541
812.565567,0.525000,0.216145
812.598790,0.650000,0.277263
812.632012,3.175000,0.828685
812.665234,21.050000,1.293010
812.698456,126.400000,1.674440
812.731677,243.200000,5.647898
812.764898,244.525000,6.895322
812.798119,141.325000,2.970769
812.831339,25.000000,0.750833
812.864559,5.125000,0.929634
812.897779,0.950000,0.343693
812.930998,0.200000,0.061237
812.964217,0.350000,0.268095
812.997436,-0.250000,0.043301
813.030655,0.075000,0.073951
813.063873,0.425000,0.337963
813.097091,0.350000,0.090139
813.130308,-0.275000,0.054486
813.163526,0.600000,0.329773
813.196743,0.075000,0.314990
813.229959,0.050000,0.043301
813.263176,-0.100000,0.117260
813.296392,-0.075000,0.181573
813.329607,0.300000,0.322102
813.362823,0.050000,0.055902
813.396038,0.225000,0.201168
813.429253,0.125000,0.379761
813.462467,0.075000,0.089268
813.495682,-0.050000,0.134629
813.528895,-0.225000,0.081968
813.562109,0.125000,0.143069
813.595322,0.100000,0.050000
813.628535,0.375000,0.213234
813.661748,0.025000,0.096014
813.694960,0.200000,0.262202
813.728172,0.075000,0.255869
813.761384,-0.025000,0.119242
813.794596,-0.250000,0.227761
813.827807,0.225000,0.387903
813.861017,0.050000,0.090139
813.894228,0.325000,0.274716
813.927438,0.200000,0.035355
813.960648,0.250000,0.201556
813.993858,0.025000,0.138632
814.027067,0.150000,0.082916
814.060276,-0.275000,0.081968
814.093485,-0.200000,0.061237
814.126693,-0.050000,0.103078
814.159901,-0.300000,0.079057
814.193109,-0.375000,0.073951
814.226316,0.400000,0.117260
814.259523,-0.050000,0.082916
814.292730,-0.075000,0.113880
814.325936,0.300000,0.050000
814.359143,0.150000,0.055902
814.392348,0.225000,0.159589
814.425554,-0.025000,0.155624
814.458759,0.200000,0.061237
814.491964,-0.075000,0.147373
814.525169,0.525000,0.108253
814.558373,0.100000,0.434454
814.591577,-0.050000,0.147902
814.624781,-0.050000,0.090139
814.657984,0.225000,0.096014
