#{
#    "background_file": "Backgrounds\\\\bg_787.999nm_16bin_197st_244en_10.0s_110g_4x_1_seq.txt",
#    "ccd_image_settings": [
#        1,
#        16,
#        1,
#        1600,
#        197,
#        244
#    ],
#    "ccd_temperature": "-88",
#    "cdRatios": {
#        "mean": 0.9213368466917278,
#        "std": 0.0069639502949824916
#    },
#    "center_lambda": 788.0,
#    "comments": "",
#    "dark_region": 0.26661386826758315,
#    "date": "11/17/19 13:47:57PM",
#    "eff_field": 1.5,
#    "exposure": 10.0,
#    "fel_lambda": "15.0",
#    "fel_pol": "H",
#    "fel_pulses": 40,
#    "fel_pyro_cal": "0.017",
#    "fel_reprate": "1.07",
#    "fel_transmission": "1.0",
#    "fel_transmission_fits": {
#        "A": 1.0,
#        "C": 0.0,
#        "Mu": 0.0
#    },
#    "fieldInt": {
#        "mean": 9587.203568181816,
#        "std": 371.32509514495564
#    },
#    "fieldStrength": {
#        "mean": 44.91229545454546,
#        "std": 0.873995578053586
#    },
#    "fpTime": {
#        "mean": 1.2101130051111415,
#        "std": 0.07027312616172145
#    },
#    "gain": 110,
#    "grating": 3,
#    "images_in_sequence": [
#        "hsg_SpotD_crystal16_a90_HAna5.txt",
#        "hsg_SpotD_crystal16_a90_HAna6.txt",
#        "hsg_SpotD_crystal16_a90_HAna7.txt",
#        "hsg_SpotD_crystal16_a90_HAna8.txt"
#    ],
#    "nir_lambda": "820.9918",
#    "nir_pola": "90",
#    "nir_polg": "0",
#    "nir_power": "100.0",
#    "pulseEnergies": {
#        "mean": 2.087840909090909,
#        "std": 0.09360047584941555
#    },
#    "pyroVoltage": {
#        "mean": 0.13337043944503307,
#        "std": 0.006843747265169733
#    },
#    "rotatorAngle": 0.0,
#    "sample_Temp": "58",
#    "sample_name": "L001218.C3",
#    "series": "SpotD_16_90",
#    "slits": "60",
#    "spec_step": "",
#    "window_trans": 0.92,
#    "y_max": 2,
#    "y_min": 1
#}
#
#
#
#
#
#
#
#
#
#
#
#
#
#
#
#
#
#
#
#
#
#
#
#
#
#
Wavelength,Signal,error
nm,arb. u.,arb.u.
Wavelength,SpotD_16_90,error
761.200217,0.425000,0.310996
761.233859,-0.075000,0.204252
761.267500,0.150000,0.075000
761.301141,0.175000,0.089268
761.334781,0.225000,0.198037
761.368422,-0.450000,0.055902
761.402062,0.150000,0.175000
761.435702,-0.350000,0.043301
761.469342,-0.100000,0.122474
761.502981,-0.075000,0.041458
761.536620,-0.050000,0.075000
761.570259,-0.025000,0.267804
761.603898,-0.200000,0.061237
761.637537,-0.100000,0.035355
761.671175,-0.125000,0.064952
761.704813,-0.050000,0.055902
761.738451,0.025000,0.147373
761.772088,0.100000,0.154110
761.805726,-0.025000,0.143069
761.839363,-0.225000,0.054486
761.873000,-0.375000,0.064952
761.906636,-0.100000,0.061237
761.940273,-0.075000,0.064952
761.973909,0.250000,0.103078
762.007545,0.225000,0.129301
762.041180,-0.375000,0.096014
762.074816,0.150000,0.225000
762.108451,0.175000,0.213234
762.142086,0.125000,0.073951
762.175720,0.175000,0.155624
762.209355,-0.050000,0.090139
762.242989,0.025000,0.021651
762.276623,0.025000,0.119242
762.310257,0.150000,0.216506
762.343890,-0.275000,0.124373
762.377524,0.075000,0.143069
762.411157,0.075000,0.041458
762.444789,0.075000,0.113880
762.478422,0.050000,0.143614
762.512054,-0.050000,0.103078
762.545686,0.100000,0.079057
762.579318,0.225000,0.124373
762.612950,-0.025000,0.073951
762.646581,-0.275000,0.089268
762.680212,0.075000,0.073951
762.713843,0.150000,0.108972
762.747474,0.375000,0.210283
762.781104,-0.250000,0.043301
762.814734,-0.425000,0.073951
762.848364,-0.200000,0.035355
762.881994,-0.125000,0.108253
762.915623,0.075000,0.054486
762.949252,0.200000,0.079057
762.982881,0.175000,0.108253
763.016510,0.075000,0.054486
763.050139,0.475000,0.391112
763.083767,-0.075000,0.081968
763.117395,0.000000,0.061237
763.151023,0.375000,0.081968
763.184650,0.225000,0.064952
763.218277,-0.275000,0.054486
763.251904,-0.100000,0.061237
763.285531,0.075000,0.073951
763.319158,0.075000,0.073951
763.352784,-0.200000,0.158114
763.386410,-0.025000,0.255869
763.420036,-0.175000,0.108253
763.453661,0.250000,0.152069
763.487287,0.325000,0.174553
763.520912,-1.100000,0.215058
763.554537,0.400000,0.141421
763.588161,0.350000,0.147902
763.621786,-0.075000,0.129301
763.655410,0.000000,0.035355
763.689034,-0.175000,0.155624
763.722657,-0.050000,0.075000
763.756281,0.100000,0.234521
763.789904,0.275000,0.198037
763.823527,0.025000,0.113880
763.857150,-0.275000,0.041458
763.890772,0.000000,0.136931
763.924394,0.425000,0.265460
763.958016,-0.100000,0.061237
763.991638,0.100000,0.035355
764.025260,-0.025000,0.021651
764.058881,0.175000,0.181573
764.092502,-0.400000,0.035355
764.126123,0.325000,0.129301
764.159743,-0.025000,0.096014
764.193363,-0.050000,0.055902
764.226983,0.025000,0.041458
764.260603,0.700000,0.491172
764.294223,-0.025000,0.194856
764.327842,0.050000,0.055902
764.361461,0.275000,0.188331
764.395080,-0.050000,0.055902
764.428699,0.025000,0.163459
764.462317,0.025000,0.021651
764.495935,-0.225000,0.041458
764.529553,0.025000,0.138632
764.563170,0.050000,0.090139
764.596788,0.125000,0.054486
764.630405,-0.150000,0.055902
764.664022,-0.150000,0.103078
764.697638,0.175000,0.096014
764.731255,0.350000,0.311247
764.764871,0.150000,0.163936
764.798487,-0.275000,0.041458
764.832103,-0.225000,0.064952
764.865718,-0.025000,0.021651
764.899333,-0.075000,0.041458
764.932948,-0.150000,0.043301
764.966563,0.050000,0.182003
765.000177,0.200000,0.203101
765.033792,0.000000,0.061237
765.067406,0.800000,0.325960
765.101019,0.525000,0.294480
765.134633,-0.075000,0.081968
765.168246,-0.075000,0.021651
765.201859,-0.050000,0.043301
765.235472,0.100000,0.061237
765.269084,0.550000,0.336341
765.302697,-0.075000,0.113880
765.336309,0.000000,0.061237
765.369920,0.075000,0.041458
765.403532,-0.275000,0.054486
765.437143,-0.225000,0.054486
765.470754,0.050000,0.055902
765.504365,0.325000,0.230149
765.537976,0.150000,0.188746
765.571586,0.150000,0.201556
765.605196,-0.325000,0.096014
765.638806,0.600000,0.333542
765.672416,0.000000,0.035355
765.706025,0.075000,0.124373
765.739634,-0.025000,0.041458
765.773243,0.075000,0.041458
765.806851,0.000000,0.035355
765.840460,0.175000,0.129301
765.874068,0.125000,0.064952
765.907676,0.025000,0.224653
765.941284,0.075000,0.167239
765.974891,-0.025000,0.021651
766.008498,-0.175000,0.041458
766.042105,-0.025000,0.073951
766.075712,-0.375000,0.041458
766.109318,-0.325000,0.089268
766.142924,-0.225000,0.041458
766.176530,-0.625000,0.041458
766.210136,-0.350000,0.134629
766.243741,0.075000,0.124373
766.277347,-0.150000,0.108972
766.310951,0.000000,0.150000
766.344556,-0.100000,0.061237
766.378161,0.175000,0.108253
766.411765,-0.150000,0.090139
766.445369,-0.025000,0.089268
766.478973,-0.025000,0.064952
766.512576,0.000000,0.061237
766.546179,0.250000,0.160078
766.579782,0.200000,0.183712
766.613385,0.025000,0.064952
766.646988,-0.150000,0.075000
766.680590,0.100000,0.093541
766.714192,0.050000,0.090139
766.747794,0.075000,0.210283
766.781395,0.275000,0.054486
766.814996,-0.250000,0.147902
766.848597,-0.075000,0.119242
766.882198,0.025000,0.041458
766.915799,0.300000,0.244949
766.949399,0.300000,0.154110
766.982999,0.125000,0.041458
767.016599,0.175000,0.155624
767.050198,0.250000,0.114564
767.083798,0.000000,0.035355
767.117397,-0.125000,0.064952
767.150996,-0.075000,0.108253
767.184594,-0.425000,0.021651
767.218193,0.075000,0.041458
767.251791,-0.175000,0.054486
767.285389,-0.500000,0.061237
767.318986,-0.100000,0.070711
767.352583,0.400000,0.212132
767.386181,0.100000,0.297909
767.419777,0.075000,0.134048
767.453374,0.100000,0.061237
767.486970,-0.225000,0.184983
767.520567,0.150000,0.075000
767.554162,0.200000,0.176777
767.587758,0.350000,0.219374
767.621353,-0.025000,0.081968
767.654949,-0.200000,0.093541
767.688543,0.225000,0.119242
767.722138,0.125000,0.021651
767.755732,0.025000,0.041458
767.789327,-0.050000,0.195256
767.822921,-0.300000,0.061237
767.856514,-0.300000,0.035355
767.890108,0.100000,0.220794
767.923701,-0.125000,0.073951
767.957294,-0.075000,0.041458
767.990886,0.000000,0.061237
768.024479,-0.175000,0.108253
768.058071,0.075000,0.064952
768.091663,-0.150000,0.090139
768.125255,0.000000,0.093541
768.158846,0.150000,0.160078
768.192437,-0.200000,0.162019
768.226028,-0.150000,0.114564
768.259619,0.250000,0.075000
768.293209,0.025000,0.041458
768.326799,0.200000,0.117260
768.360389,-0.100000,0.035355
768.393979,0.075000,0.102317
768.427568,-0.025000,0.054486
768.461158,0.150000,0.129904
768.494747,-0.250000,0.043301
768.528335,-0.075000,0.073951
768.561924,0.200000,0.050000
768.595512,0.125000,0.096014
768.629100,0.100000,0.111803
768.662688,-0.150000,0.043301
768.696275,0.275000,0.188331
768.729862,0.000000,0.297909
768.763449,-0.100000,0.061237
768.797036,-0.200000,0.035355
768.830623,0.100000,0.000000
768.864209,-0.025000,0.081968
768.897795,-0.075000,0.064952
768.931381,0.450000,0.201556
768.964966,-0.225000,0.041458
768.998551,0.150000,0.114564
769.032136,-0.325000,0.096014
769.065721,-0.125000,0.073951
769.099305,-0.125000,0.108253
769.132890,0.000000,0.117260
769.166474,0.300000,0.127475
769.200057,-0.225000,0.064952
769.233641,0.025000,0.113880
769.267224,-0.275000,0.064952
769.300807,-0.200000,0.035355
769.334390,0.000000,0.209165
769.367972,0.225000,0.073951
769.401555,-0.275000,0.041458
769.435137,-0.300000,0.093541
769.468718,0.175000,0.124373
769.502300,-0.125000,0.113880
769.535881,-0.075000,0.054486
769.569462,-0.450000,0.075000
769.603043,-0.175000,0.119242
769.636623,0.175000,0.119242
769.670204,-0.175000,0.041458
769.703784,0.000000,0.061237
769.737364,0.075000,0.021651
769.770943,0.125000,0.073951
769.804522,0.050000,0.152069
769.838101,-0.200000,0.035355
769.871680,-0.175000,0.073951
769.905259,-0.250000,0.256174
769.938837,-0.050000,0.043301
769.972415,0.075000,0.113880
770.005993,0.000000,0.070711
770.039570,0.150000,0.103078
770.073147,0.025000,0.021651
770.106724,0.325000,0.265460
770.140301,0.225000,0.073951
770.173878,0.275000,0.298695
770.207454,-0.050000,0.103078
770.241030,0.200000,0.136931
770.274606,-0.050000,0.075000
770.308181,0.150000,0.055902
770.341757,-0.025000,0.073951
770.375332,0.475000,0.306951
770.408906,0.050000,0.143614
770.442481,-0.200000,0.154110
770.476055,-0.325000,0.041458
770.509629,0.175000,0.124373
770.543203,-0.225000,0.064952
770.576776,-0.050000,0.025000
770.610350,0.300000,0.117260
770.643923,-0.075000,0.054486
770.677495,-0.025000,0.064952
770.711068,0.175000,0.138632
770.744640,0.550000,0.361421
770.778212,-0.025000,0.167239
770.811784,-0.175000,0.041458
770.845356,-0.025000,0.194856
770.878927,0.275000,0.021651
770.912498,1.000000,0.454148
770.946069,-0.125000,0.041458
770.979639,-0.075000,0.041458
771.013209,0.150000,0.055902
771.046779,-0.475000,0.096014
771.080349,-0.100000,0.093541
771.113919,-0.025000,0.054486
771.147488,0.100000,0.050000
771.181057,0.200000,0.145774
771.214626,0.075000,0.181573
771.248194,-0.150000,0.025000
771.281762,0.250000,0.147902
771.315330,0.000000,0.093541
771.348898,0.025000,0.108253
771.382465,-0.100000,0.111803
771.416033,-0.225000,0.129301
771.449600,0.150000,0.103078
771.483166,0.150000,0.025000
771.516733,0.400000,0.266927
771.550299,-0.125000,0.096014
771.583865,0.300000,0.206155
771.617431,-0.250000,0.082916
771.650996,0.200000,0.093541
771.684562,0.475000,0.310996
771.718127,-0.050000,0.025000
771.751691,0.325000,0.147373
771.785256,-0.300000,0.061237
771.818820,-0.250000,0.043301
771.852384,0.150000,0.055902
771.885948,-0.050000,0.090139
771.919511,-0.075000,0.073951
771.953074,0.200000,0.061237
771.986637,0.150000,0.075000
772.020200,0.125000,0.174553
772.053762,0.050000,0.075000
772.087325,-0.075000,0.081968
772.120887,-0.225000,0.096014
772.154448,0.175000,0.102317
772.188010,-0.050000,0.108972
772.221571,0.075000,0.102317
772.255132,0.275000,0.181573
772.288692,0.050000,0.114564
772.322253,0.425000,0.345281
772.355813,0.175000,0.143069
772.389373,-0.050000,0.235850
772.422933,-0.050000,0.114564
772.456492,-0.075000,0.064952
772.490051,-0.050000,0.043301
772.523610,0.050000,0.103078
772.557169,-0.200000,0.079057
772.590727,-0.175000,0.081968
772.624285,0.075000,0.096014
772.657843,0.100000,0.070711
772.691401,-0.525000,0.119242
772.724958,-0.025000,0.113880
772.758515,-0.075000,0.073951
772.792072,0.025000,0.081968
772.825629,0.650000,0.469707
772.859185,0.200000,0.079057
772.892741,-0.050000,0.055902
772.926297,0.200000,0.209165
772.959853,-0.025000,0.041458
772.993408,-0.700000,0.035355
773.026963,0.300000,0.106066
773.060518,-0.150000,0.025000
773.094073,-0.200000,0.079057
773.127627,0.125000,0.113880
773.161181,0.325000,0.054486
773.194735,0.075000,0.089268
773.228289,-0.125000,0.073951
773.261842,0.150000,0.082916
773.295395,0.000000,0.122474
773.328948,0.500000,0.269258
773.362500,0.100000,0.050000
773.396053,-0.125000,0.124373
773.429605,-0.025000,0.041458
773.463157,0.025000,0.054486
773.496708,0.075000,0.041458
773.530260,-0.150000,0.225000
773.563811,-0.275000,0.054486
773.597361,-0.250000,0.025000
773.630912,0.050000,0.103078
773.664462,0.225000,0.073951
773.698012,-0.100000,0.050000
773.731562,0.025000,0.041458
773.765111,0.100000,0.000000
773.798661,0.050000,0.075000
773.832210,0.275000,0.300780
773.865758,0.050000,0.025000
773.899307,0.125000,0.054486
773.932855,0.175000,0.155624
773.966403,-0.025000,0.041458
773.999951,-0.025000,0.054486
774.033498,-0.050000,0.025000
774.067046,0.025000,0.064952
774.100593,0.275000,0.188331
774.134139,0.150000,0.075000
774.167686,-0.075000,0.054486
774.201232,0.175000,0.041458
774.234778,0.275000,0.124373
774.268324,0.025000,0.108253
774.301869,-0.100000,0.035355
774.335414,-0.400000,0.061237
774.368959,0.025000,0.124373
774.402504,0.075000,0.221853
774.436048,-0.350000,0.090139
774.469592,-0.050000,0.075000
774.503136,0.375000,0.096014
774.536680,0.075000,0.073951
774.570223,0.150000,0.055902
774.603766,0.275000,0.143069
774.637309,0.250000,0.114564
774.670852,-0.025000,0.021651
774.704394,-0.175000,0.041458
774.737936,-0.300000,0.106066
774.771478,-0.175000,0.089268
774.805020,0.000000,0.127475
774.838561,0.025000,0.041458
774.872102,0.400000,0.035355
774.905643,-0.050000,0.025000
774.939183,0.125000,0.054486
774.972724,-0.125000,0.096014
775.006264,-0.200000,0.035355
775.039804,0.225000,0.081968
775.073343,-0.300000,0.234521
775.106882,-0.250000,0.114564
775.140421,0.225000,0.143069
775.173960,-0.475000,0.081968
775.207499,-0.175000,0.021651
775.241037,-0.050000,0.075000
775.274575,-0.175000,0.041458
775.308113,-0.250000,0.075000
775.341650,0.050000,0.075000
775.375187,0.325000,0.235518
775.408724,-0.100000,0.070711
775.442261,-0.125000,0.108253
775.475798,0.150000,0.363146
775.509334,0.075000,0.054486
775.542870,-0.075000,0.041458
775.576405,-0.100000,0.086603
775.609941,0.225000,0.041458
775.643476,0.175000,0.272431
775.677011,-0.475000,0.041458
775.710546,0.125000,0.081968
775.744080,0.275000,0.119242
775.777614,0.175000,0.216145
775.811148,-0.150000,0.055902
775.844682,-0.050000,0.075000
775.878215,-0.325000,0.073951
775.911748,-0.100000,0.061237
775.945281,0.025000,0.108253
775.978814,0.425000,0.253414
776.012346,0.000000,0.050000
776.045878,-0.100000,0.035355
776.079410,0.000000,0.035355
776.112941,0.050000,0.075000
776.146473,-0.025000,0.102317
776.180004,-0.075000,0.138632
776.213535,0.050000,0.025000
776.247065,0.050000,0.075000
776.280595,-0.125000,0.041458
776.314125,0.025000,0.021651
776.347655,-0.025000,0.021651
776.381185,-0.300000,0.093541
776.414714,0.175000,0.073951
776.448243,-0.125000,0.054486
776.481772,-0.125000,0.041458
776.515300,0.275000,0.134048
776.548828,0.275000,0.138632
776.582356,-0.275000,0.096014
776.615884,-0.225000,0.021651
776.649411,0.000000,0.061237
776.682938,0.000000,0.183712
776.716465,-0.050000,0.043301
776.749992,0.350000,0.303109
776.783518,-0.075000,0.054486
776.817044,0.425000,0.194856
776.850570,-0.000000,0.111803
776.884096,0.175000,0.064952
776.917621,-0.200000,0.035355
776.951146,0.100000,0.035355
776.984671,-0.250000,0.225000
777.018196,-0.125000,0.129301
777.051720,0.325000,0.096014
777.085244,0.175000,0.041458
777.118768,-0.550000,0.025000
777.152292,0.025000,0.054486
777.185815,0.125000,0.174553
777.219338,-0.125000,0.041458
777.252861,-0.025000,0.108253
777.286383,-0.100000,0.035355
777.319905,-0.100000,0.079057
777.353427,-0.025000,0.054486
777.386949,0.150000,0.103078
777.420471,0.450000,0.090139
777.453992,0.325000,0.263095
777.487513,-0.025000,0.041458
777.521033,-0.575000,0.089268
777.554554,-0.175000,0.124373
777.588074,-0.000000,0.093541
777.621594,0.100000,0.079057
777.655114,0.100000,0.079057
777.688633,0.075000,0.021651
777.722152,0.100000,0.050000
777.755671,0.100000,0.154110
777.789190,-0.125000,0.064952
777.822708,-0.250000,0.043301
777.856226,0.100000,0.150000
777.889744,-0.050000,0.082916
777.923261,0.025000,0.081968
777.956779,0.050000,0.075000
777.990296,0.075000,0.041458
778.023812,0.175000,0.207289
778.057329,0.100000,0.086603
778.090845,0.025000,0.143069
778.124361,-0.125000,0.064952
778.157877,-0.050000,0.103078
778.191392,-0.200000,0.061237
778.224908,-0.050000,0.075000
778.258423,-0.150000,0.075000
778.291937,0.000000,0.162019
778.325452,0.025000,0.041458
778.358966,-0.125000,0.021651
778.392480,0.375000,0.188331
778.425993,-0.175000,0.054486
778.459507,0.075000,0.054486
778.493020,-0.150000,0.043301
778.526533,-0.100000,0.061237
778.560045,-0.300000,0.141421
778.593558,-0.050000,0.108972
778.627070,-0.325000,0.064952
778.660582,0.150000,0.103078
778.694093,-0.025000,0.041458
778.727605,-0.125000,0.073951
778.761116,0.475000,0.221853
778.794626,0.125000,0.124373
778.828137,-0.025000,0.041458
778.861647,-0.150000,0.055902
778.895157,0.200000,0.106066
778.928667,-0.150000,0.025000
778.962176,-0.075000,0.054486
778.995686,0.025000,0.081968
779.029194,0.175000,0.073951
779.062703,0.075000,0.064952
779.096212,0.125000,0.054486
779.129720,0.050000,0.082916
779.163228,-0.050000,0.163936
779.196735,-0.150000,0.103078
779.230243,-0.800000,0.035355
779.263750,0.075000,0.096014
779.297257,0.075000,0.041458
779.330763,0.000000,0.000000
779.364269,0.025000,0.198037
779.397776,0.250000,0.025000
779.431281,0.000000,0.061237
779.464787,-0.025000,0.064952
779.498292,-0.075000,0.064952
779.531797,-0.050000,0.055902
779.565302,0.300000,0.183712
779.598806,0.100000,0.070711
779.632311,0.325000,0.096014
779.665814,0.325000,0.207289
779.699318,0.125000,0.073951
779.732822,0.075000,0.129301
779.766325,0.150000,0.055902
779.799828,0.175000,0.155624
779.833330,0.100000,0.093541
779.866833,-0.200000,0.061237
779.900335,-0.000000,0.093541
779.933837,-0.025000,0.021651
779.967338,-0.150000,0.025000
780.000840,0.400000,0.325960
780.034341,-0.200000,0.000000
780.067841,0.075000,0.096014
780.101342,0.225000,0.096014
780.134842,0.050000,0.043301
780.168342,-0.075000,0.041458
780.201842,0.050000,0.082916
780.235341,0.075000,0.041458
780.268841,-0.100000,0.035355
780.302340,-0.200000,0.106066
780.335838,0.200000,0.070711
780.369337,-0.125000,0.073951
780.402835,0.175000,0.119242
780.436333,-0.175000,0.021651
780.469830,0.050000,0.108972
780.503328,0.075000,0.102317
780.536825,0.225000,0.089268
780.570322,0.225000,0.253414
780.603818,0.000000,0.035355
780.637315,-0.200000,0.111803
780.670811,-0.150000,0.075000
780.704306,-0.175000,0.054486
780.737802,0.125000,0.041458
780.771297,-0.075000,0.064952
780.804792,0.025000,0.021651
780.838287,-0.050000,0.075000
780.871781,-0.075000,0.073951
780.905276,0.225000,0.369755
780.938770,-0.450000,0.075000
780.972263,-0.100000,0.093541
781.005757,0.025000,0.064952
781.039250,0.225000,0.198037
781.072743,0.125000,0.064952
781.106235,0.050000,0.134629
781.139728,-0.050000,0.075000
781.173220,-0.075000,0.073951
781.206712,0.150000,0.043301
781.240203,0.050000,0.055902
781.273694,0.075000,0.073951
781.307185,-0.100000,0.093541
781.340676,0.000000,0.070711
781.374167,0.050000,0.055902
781.407657,0.325000,0.096014
781.441147,-0.050000,0.167705
781.474636,-0.075000,0.041458
781.508126,-0.050000,0.129904
781.541615,0.100000,0.187083
781.575104,-0.075000,0.041458
781.608593,0.100000,0.093541
781.642081,-0.025000,0.041458
781.675569,-0.050000,0.075000
781.709057,0.050000,0.082916
781.742544,0.325000,0.188331
781.776032,-0.100000,0.117260
781.809519,-0.225000,0.073951
781.843006,0.100000,0.093541
781.876492,0.025000,0.021651
781.909978,0.350000,0.055902
781.943464,0.100000,0.000000
781.976950,0.025000,0.021651
782.010435,0.050000,0.082916
782.043921,-0.075000,0.064952
782.077406,0.200000,0.127475
782.110890,0.125000,0.096014
782.144375,-0.075000,0.119242
782.177859,0.150000,0.114564
782.211343,-0.150000,0.025000
782.244826,0.225000,0.073951
782.278309,0.350000,0.225000
782.311792,0.200000,0.158114
782.345275,0.200000,0.247487
782.378758,0.275000,0.270127
782.412240,-0.200000,0.150000
782.445722,-0.175000,0.021651
782.479204,0.175000,0.041458
782.512685,-0.200000,0.070711
782.546166,-0.000000,0.136931
782.579647,0.050000,0.043301
782.613128,-0.075000,0.073951
782.646608,-0.100000,0.079057
782.680088,0.150000,0.082916
782.713568,-0.225000,0.119242
782.747048,0.150000,0.043301
782.780527,-0.250000,0.129904
782.814006,-0.175000,0.021651
782.847485,0.100000,0.093541
782.880963,-0.100000,0.117260
782.914442,0.050000,0.134629
782.947920,-0.250000,0.125000
782.981397,0.025000,0.089268
783.014875,0.250000,0.129904
783.048352,-0.100000,0.093541
783.081829,0.000000,0.154110
783.115306,0.000000,0.061237
783.148782,-0.150000,0.075000
783.182258,-0.400000,0.061237
783.215734,0.275000,0.210283
783.249209,-0.325000,0.054486
783.282685,0.075000,0.041458
783.316160,0.125000,0.119242
783.349635,0.200000,0.111803
783.383109,-0.325000,0.041458
783.416583,-0.150000,0.055902
783.450057,-0.225000,0.041458
783.483531,-0.025000,0.096014
783.517004,0.200000,0.050000
783.550477,0.075000,0.041458
783.583950,0.050000,0.082916
783.617423,0.275000,0.089268
783.650895,0.525000,0.343466
783.684367,0.000000,0.035355
783.717839,-0.525000,0.245904
783.751311,-0.200000,0.061237
783.784782,0.525000,0.403694
783.818253,0.000000,0.061237
783.851724,0.100000,0.000000
783.885194,0.400000,0.162019
783.918665,-0.175000,0.041458
783.952134,0.025000,0.073951
783.985604,0.025000,0.021651
784.019074,0.025000,0.041458
784.052543,-0.025000,0.124373
784.086012,0.225000,0.235518
784.119480,-0.075000,0.089268
784.152948,0.200000,0.158114
784.186416,0.100000,0.079057
784.219884,-0.050000,0.025000
784.253352,0.375000,0.147373
784.286819,-0.200000,0.061237
784.320286,-0.300000,0.050000
784.353753,0.275000,0.272431
784.387219,0.175000,0.096014
784.420685,0.075000,0.021651
784.454151,0.175000,0.143069
784.487617,0.025000,0.194856
784.521082,0.200000,0.165831
784.554547,0.175000,0.054486
784.588012,-0.050000,0.055902
784.621477,-0.000000,0.093541
784.654941,0.150000,0.055902
784.688405,0.200000,0.000000
784.721869,-0.025000,0.073951
784.755332,0.150000,0.219374
784.788795,-0.075000,0.054486
784.822258,0.200000,0.079057
784.855721,0.325000,0.147373
784.889183,0.200000,0.165831
784.922646,-0.175000,0.021651
784.956107,0.200000,0.035355
784.989569,-0.025000,0.064952
785.023030,-0.125000,0.064952
785.056491,0.000000,0.215058
785.089952,-0.075000,0.041458
785.123413,-0.025000,0.064952
785.156873,-0.025000,0.201168
785.190333,0.275000,0.194856
785.223792,0.075000,0.096014
785.257252,-0.075000,0.089268
785.290711,-0.050000,0.025000
785.324170,-0.000000,0.127475
785.357629,-0.125000,0.096014
785.391087,0.075000,0.021651
785.424545,0.100000,0.093541
785.458003,0.025000,0.119242
785.491460,-0.075000,0.073951
785.524918,0.075000,0.096014
785.558375,0.100000,0.070711
785.591831,0.025000,0.041458
785.625288,0.250000,0.178536
785.658744,0.200000,0.061237
785.692200,0.100000,0.136931
785.725655,-0.050000,0.055902
785.759111,0.100000,0.196850
785.792566,-0.225000,0.073951
785.826021,0.050000,0.082916
785.859475,-0.250000,0.043301
785.892930,0.125000,0.194856
785.926384,-0.025000,0.021651
785.959837,0.000000,0.106066
785.993291,0.300000,0.117260
786.026744,0.250000,0.114564
786.060197,0.200000,0.320156
786.093649,0.175000,0.201168
786.127102,0.175000,0.163459
786.160554,0.075000,0.054486
786.194006,0.000000,0.070711
786.227457,0.150000,0.134629
786.260909,0.000000,0.061237
786.294360,-0.100000,0.093541
786.327810,-0.025000,0.129301
786.361261,0.075000,0.041458
786.394711,0.050000,0.082916
786.428161,-0.075000,0.054486
786.461611,0.250000,0.082916
786.495060,-0.100000,0.079057
786.528509,-0.125000,0.089268
786.561958,0.000000,0.035355
786.595407,0.075000,0.073951
786.628855,0.125000,0.041458
786.662303,0.000000,0.176777
786.695751,0.125000,0.073951
786.729198,0.050000,0.082916
786.762645,0.025000,0.054486
786.796092,-0.075000,0.119242
786.829539,-0.025000,0.081968
786.862985,-0.050000,0.055902
786.896431,-0.250000,0.055902
786.929877,0.100000,0.035355
786.963323,0.250000,0.114564
786.996768,0.150000,0.055902
787.030213,-0.000000,0.145774
787.063658,-0.100000,0.086603
787.097102,-0.075000,0.073951
787.130547,-0.425000,0.021651
787.163991,-0.325000,0.041458
787.197434,-0.325000,0.151554
787.230878,0.275000,0.073951
787.264321,0.000000,0.035355
787.297764,-0.025000,0.108253
787.331206,0.075000,0.041458
787.364648,0.050000,0.055902
787.398090,0.175000,0.096014
787.431532,-0.075000,0.021651
787.464974,-0.100000,0.000000
787.498415,-0.225000,0.184983
787.531856,-0.200000,0.093541
787.565296,-0.350000,0.075000
787.598737,0.175000,0.041458
787.632177,0.225000,0.041458
787.665617,-0.225000,0.096014
787.699056,-0.100000,0.061237
787.732496,-0.250000,0.279508
787.765935,0.150000,0.178536
787.799373,0.325000,0.270127
787.832812,0.700000,0.454148
787.866250,0.575000,0.204252
787.899688,0.650000,0.369966
787.933126,0.500000,0.320156
787.966563,0.050000,0.025000
788.000000,0.225000,0.207289
788.033437,-0.225000,0.021651
788.066873,-0.050000,0.090139
788.100310,0.050000,0.075000
788.133746,0.075000,0.064952
788.167181,0.275000,0.108253
788.200617,0.450000,0.296859
788.234052,0.075000,0.041458
788.267487,-0.300000,0.035355
788.300921,-0.075000,0.041458
788.334356,0.350000,0.195256
788.367790,0.100000,0.035355
788.401224,0.175000,0.081968
788.434657,-0.275000,0.041458
788.468090,0.175000,0.304908
788.501523,0.025000,0.073951
788.534956,-0.025000,0.064952
788.568389,0.275000,0.245904
788.601821,0.000000,0.122474
788.635253,0.000000,0.106066
788.668684,0.050000,0.167705
788.702116,-0.025000,0.041458
788.735547,-0.125000,0.081968
788.768977,0.125000,0.073951
788.802408,0.175000,0.064952
788.835838,-0.025000,0.096014
788.869268,-0.050000,0.043301
788.902698,0.050000,0.090139
788.936127,-0.075000,0.064952
788.969556,0.075000,0.064952
789.002985,0.050000,0.125000
789.036414,-0.025000,0.021651
789.069842,-0.300000,0.061237
789.103270,0.300000,0.173205
789.136698,-0.050000,0.055902
789.170125,0.075000,0.108253
789.203552,0.025000,0.108253
789.236979,0.175000,0.041458
789.270406,-0.050000,0.025000
789.303832,0.175000,0.102317
789.337258,-0.125000,0.054486
789.370684,-0.050000,0.075000
789.404110,-0.125000,0.064952
789.437535,0.225000,0.054486
789.470960,0.225000,0.108253
789.504385,0.350000,0.235850
789.537809,0.200000,0.162019
789.571233,0.000000,0.035355
789.604657,-0.050000,0.025000
789.638081,-0.025000,0.270127
789.671504,0.125000,0.238157
789.704927,0.525000,0.298695
789.738350,0.825000,0.313000
789.771772,0.850000,0.432290
789.805195,-0.100000,0.162019
789.838617,0.575000,0.221853
789.872038,0.375000,0.167239
789.905460,-0.750000,0.090139
789.938881,-0.025000,0.108253
789.972302,0.000000,0.079057
790.005722,0.000000,0.000000
790.039143,-0.025000,0.041458
790.072563,0.000000,0.035355
790.105982,0.125000,0.108253
790.139402,0.250000,0.075000
790.172821,-0.450000,0.082916
790.206240,-0.125000,0.064952
790.239658,0.175000,0.041458
790.273077,0.125000,0.089268
790.306495,-0.350000,0.082916
790.339913,0.125000,0.064952
790.373330,-0.075000,0.089268
790.406747,-0.050000,0.103078
790.440164,0.125000,0.198037
790.473581,0.025000,0.064952
790.506997,-0.025000,0.188331
790.540414,-0.100000,0.050000
790.573829,-0.050000,0.055902
790.607245,0.200000,0.154110
790.640660,0.075000,0.054486
790.674075,0.175000,0.089268
790.707490,0.250000,0.219374
790.740904,-0.025000,0.096014
790.774319,0.125000,0.119242
790.807733,0.075000,0.102317
790.841146,0.000000,0.035355
790.874560,-0.300000,0.035355
790.907973,0.275000,0.155624
790.941385,0.475000,0.326678
790.974798,0.125000,0.073951
791.008210,0.025000,0.021651
791.041622,-0.200000,0.070711
791.075034,0.150000,0.143614
791.108445,0.000000,0.169558
791.141856,0.075000,0.064952
791.175267,-0.125000,0.054486
791.208678,0.250000,0.167705
791.242088,0.275000,0.194856
791.275498,-0.150000,0.055902
791.308908,0.075000,0.041458
791.342317,0.025000,0.054486
791.375726,0.075000,0.113880
791.409135,-0.025000,0.054486
791.442544,-0.450000,0.075000
791.475952,0.250000,0.129904
791.509360,0.175000,0.151554
791.542768,-0.075000,0.089268
791.576176,0.775000,0.470870
791.609583,1.500000,0.541987
791.642990,1.675000,0.378112
791.676396,0.525000,0.191621
791.709803,0.275000,0.155624
791.743209,0.350000,0.248747
791.776615,0.050000,0.025000
791.810020,-0.050000,0.055902
791.843425,0.100000,0.061237
791.876830,-0.425000,0.155624
791.910235,0.250000,0.167705
791.943640,-0.300000,0.061237
791.977044,-0.325000,0.064952
792.010448,-0.175000,0.054486
792.043851,0.175000,0.064952
792.077254,0.050000,0.134629
792.110658,-0.025000,0.021651
792.144060,-0.025000,0.155624
792.177463,-0.175000,0.054486
792.210865,0.100000,0.093541
792.244267,0.150000,0.043301
792.277668,0.050000,0.075000
792.311070,0.225000,0.124373
792.344471,0.250000,0.103078
792.377872,0.050000,0.055902
792.411272,0.100000,0.061237
792.444672,0.150000,0.195256
792.478072,0.050000,0.103078
792.511472,0.050000,0.160078
792.544871,0.200000,0.061237
792.578271,-0.200000,0.093541
792.611669,0.025000,0.089268
792.645068,0.000000,0.050000
792.678466,-0.300000,0.035355
792.711864,-0.125000,0.064952
792.745262,-0.150000,0.075000
792.778659,-0.050000,0.055902
792.812056,-0.150000,0.103078
792.845453,0.100000,0.061237
792.878850,-0.100000,0.061237
792.912246,0.125000,0.089268
792.945642,-0.025000,0.064952
792.979038,0.050000,0.055902
793.012433,0.000000,0.079057
793.045829,-0.075000,0.089268
793.079223,-0.325000,0.021651
793.112618,-0.125000,0.081968
793.146012,0.025000,0.041458
793.179406,-0.050000,0.143614
793.212800,0.000000,0.035355
793.246194,-0.100000,0.061237
793.279587,0.100000,0.035355
793.312980,0.025000,0.041458
793.346373,-0.500000,0.061237
793.379765,0.025000,0.073951
793.413157,0.625000,0.302851
793.446549,1.000000,0.242384
793.479940,3.050000,0.790965
793.513332,1.425000,0.357727
793.546723,1.000000,0.362284
793.580113,0.175000,0.134048
793.613504,-0.125000,0.041458
793.646894,-0.225000,0.163459
793.680284,-0.025000,0.064952
793.713673,-0.075000,0.073951
793.747062,0.050000,0.090139
793.780451,-0.075000,0.096014
793.813840,0.150000,0.075000
793.847228,0.100000,0.070711
793.880617,0.025000,0.108253
793.914004,0.000000,0.050000
793.947392,-0.350000,0.055902
793.980779,-0.300000,0.035355
794.014166,-0.350000,0.055902
794.047553,0.000000,0.061237
794.080940,0.400000,0.176777
794.114326,0.600000,0.433013
794.147712,0.000000,0.061237
794.181097,-0.125000,0.054486
794.214483,0.125000,0.054486
794.247868,0.125000,0.064952
794.281252,0.750000,0.471036
794.314637,-0.275000,0.113880
794.348021,-0.025000,0.096014
794.381405,-0.175000,0.108253
794.414788,0.600000,0.215058
794.448172,0.075000,0.041458
794.481555,-0.150000,0.075000
794.514938,-0.075000,0.021651
794.548320,-0.225000,0.108253
794.581702,0.325000,0.263095
794.615084,0.075000,0.054486
794.648466,0.000000,0.050000
794.681847,0.050000,0.103078
794.715228,-0.625000,0.155624
794.748609,-0.325000,0.054486
794.781990,-0.750000,0.241091
794.815370,-0.225000,0.108253
794.848750,0.075000,0.224653
794.882129,-0.225000,0.119242
794.915509,0.050000,0.075000
794.948888,-0.475000,0.041458
794.982267,-0.025000,0.073951
795.015645,0.025000,0.138632
795.049023,0.250000,0.182003
795.082401,0.000000,0.127475
795.115779,-0.175000,0.089268
795.149156,-0.125000,0.041458
795.182534,0.225000,0.147373
795.215910,0.525000,0.263095
795.249287,0.100000,0.127475
795.282663,0.825000,0.334244
795.316039,0.900000,0.229129
795.349415,2.425000,0.255869
795.382790,2.650000,0.350892
795.416165,1.800000,0.333542
795.449540,0.650000,0.313249
795.482915,0.300000,0.093541
795.516289,0.025000,0.041458
795.549663,-0.225000,0.041458
795.583037,-0.150000,0.025000
795.616410,0.000000,0.035355
795.649783,-0.350000,0.082916
795.683156,0.075000,0.021651
795.716529,0.275000,0.108253
795.749901,-0.225000,0.073951
795.783273,-0.025000,0.064952
795.816645,-0.325000,0.041458
795.850016,-0.175000,0.073951
795.883387,0.175000,0.073951
795.916758,-0.025000,0.054486
795.950129,0.100000,0.215058
795.983499,-0.300000,0.093541
796.016869,-0.100000,0.127475
796.050239,-0.525000,0.041458
796.083608,-0.075000,0.021651
796.116977,-0.175000,0.064952
796.150346,-0.275000,0.096014
796.183714,0.025000,0.041458
796.217083,0.425000,0.167239
796.250451,-0.050000,0.134629
796.283818,-0.050000,0.025000
796.317186,-0.200000,0.061237
796.350553,-0.025000,0.089268
796.383920,-0.200000,0.061237
796.417286,0.100000,0.035355
796.450653,-0.000000,0.093541
796.484019,0.100000,0.035355
796.517384,0.025000,0.089268
796.550750,-0.050000,0.082916
796.584115,0.350000,0.207666
796.617480,-0.175000,0.041458
796.650844,0.075000,0.096014
796.684209,0.225000,0.347086
796.717573,-0.350000,0.025000
796.750936,0.175000,0.124373
796.784300,0.200000,0.136931
796.817663,0.150000,0.160078
796.851026,0.050000,0.103078
796.884388,-0.375000,0.081968
796.917751,-0.125000,0.021651
796.951113,-0.275000,0.081968
796.984474,0.050000,0.055902
797.017836,0.150000,0.103078
797.051197,0.125000,0.147373
797.084558,-0.250000,0.082916
797.117918,0.125000,0.054486
797.151279,0.275000,0.188331
797.184639,0.575000,0.119242
797.217998,0.825000,0.324760
797.251358,1.525000,0.308980
797.284717,2.650000,0.450694
797.318076,1.850000,0.658122
797.351434,0.500000,0.220794
797.384793,0.500000,0.136931
797.418151,0.600000,0.337268
797.451508,-0.025000,0.054486
797.484866,-0.025000,0.108253
797.518223,0.100000,0.070711
797.551580,-0.250000,0.055902
797.584936,-0.175000,0.054486
797.618292,-0.250000,0.043301
797.651648,-0.100000,0.035355
797.685004,-0.125000,0.096014
797.718360,0.275000,0.147373
797.751715,0.325000,0.041458
797.785069,0.075000,0.041458
797.818424,-0.150000,0.114564
797.851778,-0.075000,0.054486
797.885132,-0.375000,0.124373
797.918486,0.125000,0.041458
797.951839,-0.075000,0.054486
797.985192,0.050000,0.055902
798.018545,0.500000,0.203101
798.051898,0.100000,0.079057
798.085250,-0.025000,0.041458
798.118602,-0.100000,0.093541
798.151954,-0.225000,0.089268
798.185305,-0.300000,0.070711
798.218656,0.000000,0.035355
798.252007,0.225000,0.073951
798.285357,0.200000,0.050000
798.318708,-0.150000,0.075000
798.352057,0.200000,0.266927
798.385407,0.050000,0.082916
798.418756,-0.150000,0.055902
798.452106,-0.000000,0.093541
798.485454,0.000000,0.106066
798.518803,0.200000,0.061237
798.552151,0.000000,0.035355
798.585499,0.325000,0.314990
798.618847,-0.375000,0.054486
798.652194,0.175000,0.096014
798.685541,0.175000,0.089268
798.718888,0.075000,0.021651
798.752234,0.050000,0.178536
798.785580,0.125000,0.041458
798.818926,-0.000000,0.093541
798.852272,0.075000,0.143069
798.885617,-0.225000,0.134048
798.918962,0.125000,0.129301
798.952307,-0.125000,0.041458
798.985651,0.100000,0.035355
799.018996,0.000000,0.061237
799.052339,0.275000,0.064952
799.085683,0.300000,0.106066
799.119026,1.133333,0.285774
799.152369,2.525000,0.839922
799.185712,1.266667,0.455979
799.219054,2.525000,0.491649
799.252397,0.900000,0.473022
799.285738,0.675000,0.421863
799.319080,-0.100000,0.136931
799.352421,0.075000,0.089268
799.385762,0.200000,0.061237
799.419103,0.100000,0.079057
799.452443,-0.050000,0.055902
799.485783,0.100000,0.206155
799.519123,0.050000,0.129904
799.552463,-0.150000,0.108972
799.585802,0.125000,0.113880
799.619141,0.100000,0.061237
799.652480,-0.300000,0.093541
799.685818,-0.300000,0.093541
799.719156,0.125000,0.041458
799.752494,0.225000,0.081968
799.785831,0.125000,0.081968
799.819169,-0.050000,0.075000
799.852506,-0.075000,0.124373
799.885842,-0.250000,0.043301
799.919179,-0.225000,0.041458
799.952515,0.200000,0.217945
799.985850,0.250000,0.251247
800.019186,-0.125000,0.054486
800.052521,-0.075000,0.089268
800.085856,-0.275000,0.064952
800.119191,-0.025000,0.021651
800.152525,0.200000,0.061237
800.185859,0.025000,0.089268
800.219193,0.525000,0.267804
800.252526,0.200000,0.093541
800.285859,0.350000,0.261008
800.319192,0.100000,0.145774
800.352525,-0.000000,0.158114
800.385857,-0.150000,0.082916
800.419189,0.175000,0.021651
800.452521,0.550000,0.301040
800.485852,0.175000,0.073951
800.519183,-0.550000,0.075000
800.552514,0.100000,0.271570
800.585844,-1.075000,0.089268
800.619175,0.125000,0.235518
800.652505,0.450000,0.192029
800.685834,0.225000,0.021651
800.719164,0.025000,0.054486
800.752493,0.100000,0.070711
800.785821,0.250000,0.114564
800.819150,0.025000,0.204252
800.852478,-0.150000,0.129904
800.885806,-0.075000,0.064952
800.919134,0.150000,0.143614
800.952461,0.025000,0.224653
800.985788,0.700000,0.176777
801.019115,2.900000,0.351781
801.052441,3.433333,0.328507
801.085767,7.175000,0.572686
801.119093,5.466667,0.515186
801.152419,3.150000,0.716327
801.185744,0.700000,0.262202
801.219069,-0.200000,0.061237
801.252394,0.200000,0.150000
801.285718,-0.125000,0.073951
801.319042,0.075000,0.073951
801.352366,-0.300000,0.035355
801.385690,0.475000,0.243349
801.419013,-0.725000,0.081968
801.452336,1.125000,0.430661
801.485658,-0.775000,0.143069
801.518981,0.500000,0.162019
801.552303,0.000000,0.079057
801.585625,0.225000,0.089268
801.618946,0.050000,0.192029
801.652267,-0.250000,0.075000
801.685588,-0.025000,0.089268
801.718909,0.000000,0.127475
801.752229,0.075000,0.041458
801.785549,0.350000,0.361421
801.818869,-0.025000,0.054486
801.852188,-0.275000,0.073951
801.885507,0.050000,0.143614
801.918826,0.100000,0.093541
801.952145,-0.225000,0.041458
801.985463,-0.325000,0.054486
802.018781,0.200000,0.183712
802.052099,0.175000,0.064952
802.085416,0.050000,0.147902
802.118733,0.050000,0.134629
802.152050,0.175000,0.124373
802.185366,-0.025000,0.064952
802.218683,-0.075000,0.064952
802.251999,-0.175000,0.089268
802.285314,-0.350000,0.125000
802.318630,0.200000,0.111803
802.351945,-0.050000,0.134629
802.385259,-0.075000,0.041458
802.418574,-0.125000,0.021651
802.451888,0.050000,0.103078
802.485202,0.075000,0.041458
802.518515,-0.175000,0.073951
802.551829,-0.025000,0.073951
802.585142,0.175000,0.041458
802.618454,0.050000,0.075000
802.651767,-0.075000,0.021651
802.685079,-0.575000,0.113880
802.718391,-0.075000,0.064952
802.751702,-0.025000,0.119242
802.785013,0.025000,0.054486
802.818324,0.050000,0.108972
802.851635,-0.075000,0.054486
802.884945,-0.325000,0.089268
802.918255,1.875000,0.658953
802.951565,4.275000,0.587766
802.984874,2.966667,0.174404
803.018184,5.250000,0.309233
803.051492,8.850000,0.371652
803.084801,3.275000,0.796379
803.118109,0.200000,0.196850
803.151417,-0.475000,0.143069
803.184725,0.250000,0.043301
803.218032,0.150000,0.075000
803.251339,0.325000,0.124373
803.284646,-0.075000,0.089268
803.317953,0.200000,0.215058
803.351259,-0.525000,0.102317
803.384565,-0.075000,0.089268
803.417870,0.125000,0.064952
803.451176,0.275000,0.181573
803.484481,-0.000000,0.111803
803.517786,0.200000,0.093541
803.551090,0.175000,0.041458
803.584394,0.250000,0.129904
803.617698,-0.225000,0.108253
803.651002,0.050000,0.103078
803.684305,-0.150000,0.075000
803.717608,-0.225000,0.041458
803.750910,0.025000,0.167239
803.784213,0.200000,0.231840
803.817515,0.050000,0.090139
803.850817,-0.400000,0.050000
803.884118,0.200000,0.234521
803.917419,0.425000,0.216145
803.950720,0.125000,0.089268
803.984021,0.200000,0.183712
804.017321,0.100000,0.122474
804.050621,-0.075000,0.119242
804.083921,0.200000,0.154110
804.117220,0.175000,0.167239
804.150519,-0.075000,0.041458
804.183818,0.075000,0.089268
804.217117,-0.250000,0.090139
804.250415,0.000000,0.000000
804.283713,-0.025000,0.021651
804.317011,0.025000,0.054486
804.350308,0.050000,0.175000
804.383605,0.175000,0.184983
804.416902,0.150000,0.114564
804.450198,0.575000,0.300780
804.483494,0.100000,0.061237
804.516790,0.000000,0.035355
804.550086,-0.200000,0.093541
804.583381,-0.175000,0.021651
804.616676,0.425000,0.064952
804.649971,0.425000,0.143069
804.683265,-0.200000,0.035355
804.716559,-0.400000,0.122474
804.749853,0.525000,0.458769
804.783146,-0.400000,0.061237
804.816440,0.025000,0.119242
804.849732,1.375000,0.341641
804.883025,2.625000,0.359470
804.916317,7.925000,1.353872
804.949609,8.333333,0.378043
804.982901,9.425000,0.447737
805.016192,3.300000,0.613392
805.049484,0.800000,0.325960
805.082774,-0.625000,0.054486
805.116065,0.125000,0.081968
805.149355,0.025000,0.081968
805.182645,0.075000,0.155624
805.215935,0.050000,0.043301
805.249224,0.600000,0.127475
805.282513,0.225000,0.240767
805.315802,0.000000,0.061237
805.349090,-0.100000,0.061237
805.382378,-0.025000,0.041458
805.415666,-0.025000,0.041458
805.448954,0.025000,0.054486
805.482241,-0.025000,0.081968
805.515528,-0.075000,0.089268
805.548815,0.100000,0.061237
805.582101,0.025000,0.081968
805.615387,-0.075000,0.073951
805.648673,0.100000,0.162019
805.681958,-0.250000,0.129904
805.715243,0.175000,0.108253
805.748528,0.100000,0.093541
805.781813,-0.200000,0.093541
805.815097,0.200000,0.322102
805.848381,-0.400000,0.061237
805.881665,-0.025000,0.155624
805.914948,-0.025000,0.155624
805.948231,-0.075000,0.147373
805.981514,-0.300000,0.093541
806.014796,0.100000,0.127475
806.048079,0.525000,0.159589
806.081360,-0.175000,0.021651
806.114642,0.075000,0.054486
806.147923,-0.025000,0.113880
806.181204,0.000000,0.106066
806.214485,-0.575000,0.021651
806.247765,-0.175000,0.096014
806.281046,0.050000,0.055902
806.314325,-0.275000,0.021651
806.347605,-0.025000,0.041458
806.380884,-0.400000,0.291548
806.414163,-0.025000,0.054486
806.447441,0.100000,0.154110
806.480720,-0.125000,0.073951
806.513998,-0.025000,0.073951
806.547275,0.125000,0.096014
806.580553,0.050000,0.055902
806.613830,0.050000,0.114564
806.647107,0.225000,0.204252
806.680383,-0.050000,0.225000
806.713659,0.200000,0.127475
806.746935,-0.275000,0.138632
806.780211,0.500000,0.203101
806.813486,4.775000,0.592004
806.846761,9.400000,0.579871
806.880036,15.175000,0.741093
806.913310,13.300000,1.317194
806.946584,5.000000,0.280624
806.979858,1.200000,0.337268
807.013132,0.425000,0.096014
807.046405,-0.025000,0.054486
807.079678,0.050000,0.043301
807.112951,0.075000,0.054486
807.146223,-0.025000,0.108253
807.179495,-0.175000,0.129301
807.212767,-0.875000,0.041458
807.246038,0.025000,0.143069
807.279309,-0.250000,0.025000
807.312580,-0.175000,0.081968
807.345850,-0.325000,0.113880
807.379121,-0.225000,0.124373
807.412390,0.050000,0.125000
807.445660,0.125000,0.064952
807.478929,0.225000,0.198037
807.512198,0.475000,0.178098
807.545467,-0.175000,0.081968
807.578735,-0.125000,0.096014
807.612004,-0.575000,0.167239
807.645271,0.050000,0.103078
807.678539,-0.250000,0.152069
807.711806,-0.025000,0.081968
807.745073,0.025000,0.238157
807.778340,0.025000,0.313000
807.811606,0.225000,0.054486
807.844872,0.100000,0.093541
807.878138,-0.250000,0.055902
807.911403,-0.275000,0.041458
807.944668,0.100000,0.070711
807.977933,-0.275000,0.021651
808.011197,0.125000,0.143069
808.044462,0.075000,0.143069
808.077725,-0.025000,0.155624
808.110989,-0.125000,0.108253
808.144252,0.225000,0.096014
808.177515,0.125000,0.081968
808.210778,-0.100000,0.122474
808.244040,-0.025000,0.124373
808.277302,-0.525000,0.041458
808.310564,-0.100000,0.061237
808.343826,0.150000,0.055902
808.377087,0.250000,0.305164
808.410348,0.075000,0.054486
808.443608,-0.025000,0.021651
808.476869,-0.075000,0.167239
808.510129,0.175000,0.163459
808.543388,0.175000,0.167239
808.576648,0.300000,0.158114
808.609907,-0.125000,0.155624
808.643165,-0.125000,0.089268
808.676424,0.125000,0.201168
808.709682,-0.275000,0.296595
808.742940,1.525000,0.521266
808.776197,6.975000,1.172271
808.809455,13.725000,0.324760
808.842712,14.800000,1.775176
808.875968,10.825000,0.992078
808.909225,1.675000,0.692256
808.942481,0.100000,0.234521
808.975736,-0.025000,0.188331
809.008992,-0.500000,0.061237
809.042247,-0.025000,0.181573
809.075502,-0.475000,0.073951
809.108756,-0.750000,0.090139
809.142011,0.125000,0.155624
809.175265,0.525000,0.198037
809.208518,0.125000,0.021651
809.241772,-0.025000,0.138632
809.275025,0.000000,0.035355
809.308277,0.425000,0.657053
809.341530,0.100000,0.145774
809.374782,0.050000,0.055902
809.408034,-0.075000,0.073951
809.441285,-0.525000,0.073951
809.474536,-0.525000,0.081968
809.507787,-0.325000,0.198037
809.541038,0.150000,0.251247
809.574288,0.075000,0.119242
809.607538,0.275000,0.245904
809.640788,-0.300000,0.035355
809.674037,0.225000,0.129301
809.707286,0.000000,0.127475
809.740535,0.350000,0.277263
809.773783,-0.050000,0.055902
809.807032,-0.400000,0.079057
809.840279,-0.800000,0.035355
809.873527,-0.475000,0.064952
809.906774,0.075000,0.134048
809.940021,0.175000,0.300780
809.973268,0.100000,0.079057
810.006514,-0.125000,0.096014
810.039760,-0.275000,0.081968
810.073006,0.000000,0.122474
810.106251,0.425000,0.240767
810.139497,0.250000,0.188746
810.172741,-0.200000,0.035355
810.205986,-0.025000,0.064952
810.239230,-0.350000,0.301040
810.272474,0.375000,0.224653
810.305718,0.425000,0.201168
810.338961,0.050000,0.416083
810.372204,0.375000,0.181573
810.405447,-0.375000,0.290205
810.438689,0.075000,0.155624
810.471931,-0.550000,0.090139
810.505173,-0.150000,0.103078
810.538414,0.600000,0.471699
810.571656,-0.150000,0.336341
810.604897,-0.075000,0.198037
810.638137,-0.825000,0.138632
810.671377,0.675000,0.230149
810.704617,3.075000,0.544719
810.737857,8.566667,0.296507
810.771096,19.800000,2.319213
810.804335,19.800000,0.393700
810.837574,15.250000,0.987737
810.870813,2.075000,0.481372
810.904051,0.225000,0.265460
810.937288,0.225000,0.194856
810.970526,-0.050000,0.025000
811.003763,-0.525000,0.124373
811.037000,-0.250000,0.103078
811.070237,-0.000000,0.176777
811.103473,0.175000,0.364649
811.136709,-0.225000,0.235518
811.169945,-0.475000,0.081968
811.203180,-0.075000,0.089268
811.236415,0.100000,0.154110
811.269650,-0.350000,0.043301
811.302884,-0.150000,0.160078
811.336119,-0.175000,0.258300
811.369352,-0.350000,0.075000
811.402586,0.050000,0.251247
811.435819,-0.575000,0.715345
811.469052,0.950000,0.445112
811.502285,-0.375000,0.757772
811.535517,0.425000,0.724892
811.568749,0.200000,0.908983
811.601981,0.025000,0.265460
811.635212,-0.450000,0.207666
811.668443,0.075000,0.219018
811.701674,0.225000,0.151554
811.734905,-0.425000,0.054486
811.768135,-0.175000,0.188331
811.801365,-0.125000,0.102317
811.834594,-0.225000,0.178098
811.867824,-0.500000,0.079057
811.901053,-0.300000,0.079057
811.934281,-0.450000,0.134629
811.967510,-0.375000,0.041458
812.000738,-0.150000,0.090139
812.033965,0.300000,0.377492
812.067193,-0.475000,0.138632
812.100420,-0.225000,0.210283
812.133647,-0.175000,0.143069
812.166873,-1.325000,0.064952
812.200099,0.225000,0.320887
812.233325,0.000000,0.154110
812.266551,-0.150000,0.167705
812.299776,-0.125000,0.021651
812.333001,0.075000,0.143069
812.366226,-0.125000,0.054486
812.399450,0.000000,0.145774
812.432674,0.050000,0.090139
812.465898,-0.425000,0.096014
812.499121,0.025000,0.155624
812.532345,-0.025000,0.124373
812.565567,0.175000,0.064952
812.598790,-0.075000,0.108253
812.632012,-0.125000,0.073951
812.665234,0.650000,0.055902
812.698456,3.825000,0.526041
812.731677,6.225000,0.758597
812.764898,6.200000,0.846316
812.798119,3.100000,0.212132
812.831339,0.800000,0.061237
812.864559,0.075000,0.064952
812.897779,0.100000,0.111803
812.930998,0.025000,0.089268
812.964217,0.100000,0.231840
812.997436,-0.150000,0.025000
813.030655,0.575000,0.557197
813.063873,-0.225000,0.041458
813.097091,0.025000,0.041458
813.130308,-0.625000,0.041458
813.163526,-0.100000,0.035355
813.196743,-0.175000,0.113880
813.229959,-0.050000,0.055902
813.263176,0.075000,0.108253
813.296392,-0.300000,0.106066
813.329607,-0.075000,0.054486
813.362823,-0.100000,0.035355
813.396038,0.100000,0.106066
813.429253,-0.125000,0.081968
813.462467,-0.375000,0.021651
813.495682,-0.400000,0.070711
813.528895,-0.000000,0.176777
813.562109,0.100000,0.079057
813.595322,-0.125000,0.073951
813.628535,0.075000,0.073951
813.661748,-0.125000,0.073951
813.694960,0.025000,0.041458
813.728172,-0.075000,0.096014
813.761384,-0.200000,0.061237
813.794596,-0.225000,0.270127
813.827807,-0.450000,0.025000
813.861017,-0.375000,0.041458
813.894228,0.025000,0.143069
813.927438,0.325000,0.073951
813.960648,-0.050000,0.055902
813.993858,-0.050000,0.055902
814.027067,0.025000,0.096014
814.060276,-0.125000,0.124373
814.093485,-0.325000,0.041458
814.126693,-0.375000,0.073951
814.159901,-0.250000,0.129904
814.193109,-0.500000,0.035355
814.226316,0.025000,0.041458
814.259523,-0.125000,0.064952
814.292730,0.000000,0.150000
814.325936,0.150000,0.043301
814.359143,-0.050000,0.055902
814.392348,0.025000,0.041458
814.425554,-0.225000,0.041458
814.458759,0.200000,0.070711
814.491964,-0.125000,0.054486
814.525169,0.100000,0.061237
814.558373,-0.300000,0.035355
814.591577,-0.150000,0.075000
814.624781,-0.200000,0.079057
814.657984,0.100000,0.093541
