#{
#    "background_file": "Backgrounds\\\\bg_787.999nm_16bin_197st_244en_10.0s_110g_4x_1_seq.txt",
#    "ccd_image_settings": [
#        1,
#        16,
#        1,
#        1600,
#        197,
#        244
#    ],
#    "ccd_temperature": "-88",
#    "cdRatios": {
#        "mean": 0.9295159994986115,
#        "std": 0.007100622330915683
#    },
#    "center_lambda": 788.0,
#    "comments": "",
#    "dark_region": 0.258533456591373,
#    "date": "11/17/19 13:55:22PM",
#    "eff_field": 1.5,
#    "exposure": 10.0,
#    "fel_lambda": "15.0",
#    "fel_pol": "H",
#    "fel_pulses": 40,
#    "fel_pyro_cal": "0.017",
#    "fel_reprate": "1.07",
#    "fel_transmission": "1.0",
#    "fel_transmission_fits": {
#        "A": 1.0,
#        "C": 0.0,
#        "Mu": 0.0
#    },
#    "fieldInt": {
#        "mean": 9266.953363636363,
#        "std": 523.3014137685273
#    },
#    "fieldStrength": {
#        "mean": 44.15138636363636,
#        "std": 1.2432317873819234
#    },
#    "fpTime": {
#        "mean": 1.1419175677631037,
#        "std": 0.0822183916623973
#    },
#    "gain": 110,
#    "grating": 3,
#    "images_in_sequence": [
#        "hsg_SpotD_crystal16_a90_HAna41.txt",
#        "hsg_SpotD_crystal16_a90_HAna42.txt",
#        "hsg_SpotD_crystal16_a90_HAna43.txt",
#        "hsg_SpotD_crystal16_a90_HAna44.txt"
#    ],
#    "nir_lambda": "820.9918",
#    "nir_pola": "90",
#    "nir_polg": "0",
#    "nir_power": "100.0",
#    "pulseEnergies": {
#        "mean": 2.0003863636363635,
#        "std": 0.12712526370065713
#    },
#    "pyroVoltage": {
#        "mean": 0.1266589705084375,
#        "std": 0.00896722208755443
#    },
#    "rotatorAngle": 202.4999963378817,
#    "sample_Temp": "58",
#    "sample_name": "L001218.C3",
#    "series": "SpotD_16_90",
#    "slits": "60",
#    "spec_step": "",
#    "window_trans": 0.92,
#    "y_max": 2,
#    "y_min": 1
#}
#
#
#
#
#
#
#
#
#
#
#
#
#
#
#
#
#
#
#
#
#
#
#
#
#
#
Wavelength,Signal,error
nm,arb. u.,arb.u.
Wavelength,SpotD_16_90,error
761.200217,0.050000,0.207666
761.233859,0.350000,0.321131
761.267500,0.700000,0.470372
761.301141,0.050000,0.275000
761.334781,0.100000,0.136931
761.368422,-0.175000,0.258300
761.402062,0.250000,0.275000
761.435702,-0.150000,0.082916
761.469342,0.275000,0.306951
761.502981,0.125000,0.054486
761.536620,0.050000,0.152069
761.570259,-0.125000,0.134048
761.603898,-0.275000,0.054486
761.637537,-0.100000,0.061237
761.671175,0.050000,0.143614
761.704813,0.125000,0.041458
761.738451,0.075000,0.081968
761.772088,-0.150000,0.082916
761.805726,-0.250000,0.075000
761.839363,0.075000,0.240767
761.873000,-0.500000,0.061237
761.906636,-0.125000,0.054486
761.940273,0.300000,0.122474
761.973909,0.175000,0.143069
762.007545,0.000000,0.061237
762.041180,-0.075000,0.124373
762.074816,0.300000,0.293684
762.108451,0.075000,0.064952
762.142086,0.500000,0.226385
762.175720,0.025000,0.181573
762.209355,-0.075000,0.064952
762.242989,0.350000,0.103078
762.276623,-0.025000,0.073951
762.310257,0.025000,0.151554
762.343890,-0.400000,0.070711
762.377524,-0.275000,0.054486
762.411157,-0.225000,0.113880
762.444789,0.000000,0.050000
762.478422,0.050000,0.152069
762.512054,-0.075000,0.073951
762.545686,0.175000,0.143069
762.579318,0.050000,0.055902
762.612950,-0.075000,0.041458
762.646581,-0.300000,0.035355
762.680212,0.500000,0.333542
762.713843,0.325000,0.184983
762.747474,0.350000,0.103078
762.781104,-0.075000,0.170935
762.814734,-0.400000,0.061237
762.848364,-0.175000,0.096014
762.881994,-0.150000,0.043301
762.915623,0.050000,0.025000
762.949252,-0.150000,0.055902
762.982881,0.175000,0.134048
763.016510,0.200000,0.242384
763.050139,-0.200000,0.079057
763.083767,-0.050000,0.082916
763.117395,0.725000,0.374792
763.151023,0.050000,0.055902
763.184650,0.300000,0.127475
763.218277,-0.300000,0.093541
763.251904,-0.025000,0.096014
763.285531,-0.050000,0.075000
763.319158,0.175000,0.178098
763.352784,-0.125000,0.124373
763.386410,-0.400000,0.106066
763.420036,-0.150000,0.175000
763.453661,0.850000,0.340037
763.487287,-0.125000,0.167239
763.520912,-0.325000,0.227418
763.554537,-0.050000,0.025000
763.588161,0.225000,0.163459
763.621786,0.150000,0.305164
763.655410,0.175000,0.041458
763.689034,0.200000,0.351781
763.722657,-0.050000,0.025000
763.756281,0.200000,0.061237
763.789904,-0.125000,0.054486
763.823527,0.050000,0.075000
763.857150,0.100000,0.196850
763.890772,-0.250000,0.082916
763.924394,0.300000,0.215058
763.958016,0.175000,0.248433
763.991638,0.100000,0.154110
764.025260,-0.050000,0.075000
764.058881,0.325000,0.174553
764.092502,-0.275000,0.073951
764.126123,0.200000,0.127475
764.159743,0.025000,0.081968
764.193363,-0.100000,0.086603
764.226983,0.075000,0.151554
764.260603,0.025000,0.124373
764.294223,-0.175000,0.124373
764.327842,-0.050000,0.025000
764.361461,0.000000,0.070711
764.395080,0.100000,0.106066
764.428699,-0.300000,0.035355
764.462317,0.175000,0.240767
764.495935,0.250000,0.167705
764.529553,-0.100000,0.061237
764.563170,0.200000,0.035355
764.596788,0.125000,0.073951
764.630405,-0.075000,0.089268
764.664022,-0.150000,0.055902
764.697638,0.225000,0.089268
764.731255,0.150000,0.055902
764.764871,0.050000,0.090139
764.798487,-0.125000,0.041458
764.832103,-0.000000,0.150000
764.865718,0.050000,0.025000
764.899333,0.075000,0.330483
764.932948,-0.275000,0.073951
764.966563,-0.225000,0.041458
765.000177,0.275000,0.155624
765.033792,0.325000,0.238157
765.067406,0.200000,0.262202
765.101019,-0.125000,0.081968
765.134633,0.350000,0.500625
765.168246,0.025000,0.041458
765.201859,-0.125000,0.073951
765.235472,0.225000,0.096014
765.269084,0.075000,0.064952
765.302697,-0.175000,0.181573
765.336309,0.025000,0.081968
765.369920,0.175000,0.064952
765.403532,-0.100000,0.035355
765.437143,0.100000,0.136931
765.470754,0.050000,0.055902
765.504365,0.050000,0.075000
765.537976,-0.025000,0.041458
765.571586,-0.250000,0.090139
765.605196,-0.025000,0.216145
765.638806,0.000000,0.070711
765.672416,0.350000,0.195256
765.706025,0.050000,0.043301
765.739634,0.125000,0.174553
765.773243,0.200000,0.154110
765.806851,0.175000,0.064952
765.840460,0.125000,0.174553
765.874068,0.075000,0.041458
765.907676,-0.225000,0.021651
765.941284,0.050000,0.055902
765.974891,0.075000,0.167239
766.008498,0.000000,0.061237
766.042105,-0.075000,0.081968
766.075712,-0.375000,0.081968
766.109318,-0.325000,0.064952
766.142924,-0.025000,0.041458
766.176530,-0.600000,0.061237
766.210136,-0.350000,0.082916
766.243741,-0.075000,0.064952
766.277347,-0.125000,0.213234
766.310951,-0.150000,0.134629
766.344556,0.300000,0.106066
766.378161,0.050000,0.055902
766.411765,-0.200000,0.000000
766.445369,0.050000,0.167705
766.478973,-0.325000,0.054486
766.512576,0.000000,0.070711
766.546179,0.075000,0.188331
766.579782,0.100000,0.318198
766.613385,0.275000,0.184983
766.646988,-0.100000,0.187083
766.680590,0.075000,0.064952
766.714192,0.175000,0.102317
766.747794,0.100000,0.117260
766.781395,0.300000,0.035355
766.814996,-0.425000,0.064952
766.848597,0.225000,0.155624
766.882198,-0.050000,0.043301
766.915799,0.025000,0.081968
766.949399,0.000000,0.117260
766.982999,0.175000,0.096014
767.016599,-0.100000,0.050000
767.050198,0.275000,0.213234
767.083798,0.275000,0.248433
767.117397,-0.150000,0.103078
767.150996,-0.225000,0.073951
767.184594,-0.350000,0.025000
767.218193,0.075000,0.151554
767.251791,-0.075000,0.253414
767.285389,-0.450000,0.043301
767.318986,0.000000,0.061237
767.352583,0.100000,0.061237
767.386181,0.100000,0.127475
767.419777,-0.250000,0.055902
767.453374,0.325000,0.281458
767.486970,-0.500000,0.093541
767.520567,0.075000,0.073951
767.554162,-0.100000,0.093541
767.587758,0.250000,0.143614
767.621353,0.075000,0.054486
767.654949,0.025000,0.021651
767.688543,0.275000,0.134048
767.722138,0.075000,0.041458
767.755732,0.425000,0.267804
767.789327,-0.025000,0.073951
767.822921,-0.400000,0.093541
767.856514,-0.150000,0.082916
767.890108,0.250000,0.167705
767.923701,0.000000,0.035355
767.957294,0.075000,0.073951
767.990886,0.200000,0.086603
768.024479,-0.200000,0.093541
768.058071,0.100000,0.035355
768.091663,0.050000,0.246221
768.125255,0.000000,0.000000
768.158846,0.375000,0.326678
768.192437,-0.300000,0.145774
768.226028,-0.125000,0.041458
768.259619,0.150000,0.075000
768.293209,0.100000,0.111803
768.326799,0.225000,0.207289
768.360389,-0.075000,0.073951
768.393979,0.300000,0.320156
768.427568,0.075000,0.054486
768.461158,-0.075000,0.138632
768.494747,-0.275000,0.064952
768.528335,-0.125000,0.021651
768.561924,0.300000,0.035355
768.595512,-0.025000,0.054486
768.629100,0.050000,0.043301
768.662688,0.000000,0.035355
768.696275,-0.175000,0.041458
768.729862,0.150000,0.103078
768.763449,0.025000,0.054486
768.797036,-0.325000,0.054486
768.830623,0.200000,0.176777
768.864209,-0.025000,0.102317
768.897795,0.100000,0.035355
768.931381,0.075000,0.108253
768.964966,-0.175000,0.113880
768.998551,0.200000,0.061237
769.032136,-0.125000,0.124373
769.065721,0.050000,0.103078
769.099305,-0.075000,0.167239
769.132890,-0.375000,0.089268
769.166474,0.025000,0.073951
769.200057,-0.025000,0.124373
769.233641,0.150000,0.160078
769.267224,-0.225000,0.021651
769.300807,-0.275000,0.138632
769.334390,-0.225000,0.198037
769.367972,-0.050000,0.025000
769.401555,-0.150000,0.075000
769.435137,-0.175000,0.089268
769.468718,0.100000,0.127475
769.502300,0.200000,0.289396
769.535881,-0.150000,0.075000
769.569462,-0.400000,0.070711
769.603043,-0.250000,0.075000
769.636623,0.375000,0.108253
769.670204,0.175000,0.138632
769.703784,-0.175000,0.129301
769.737364,0.100000,0.000000
769.770943,0.050000,0.108972
769.804522,-0.125000,0.089268
769.838101,-0.275000,0.073951
769.871680,0.025000,0.174553
769.905259,-0.350000,0.075000
769.938837,0.075000,0.054486
769.972415,0.075000,0.081968
770.005993,0.200000,0.196850
770.039570,0.175000,0.089268
770.073147,0.225000,0.102317
770.106724,-0.050000,0.055902
770.140301,0.450000,0.075000
770.173878,0.025000,0.089268
770.207454,-0.125000,0.041458
770.241030,0.200000,0.070711
770.274606,0.125000,0.124373
770.308181,0.250000,0.134629
770.341757,-0.025000,0.073951
770.375332,0.100000,0.162019
770.408906,0.375000,0.298695
770.442481,-0.400000,0.093541
770.476055,0.100000,0.100000
770.509629,0.150000,0.114564
770.543203,-0.100000,0.127475
770.576776,-0.075000,0.041458
770.610350,0.125000,0.054486
770.643923,-0.175000,0.073951
770.677495,0.000000,0.070711
770.711068,-0.050000,0.043301
770.744640,0.000000,0.070711
770.778212,0.125000,0.283670
770.811784,0.075000,0.064952
770.845356,0.050000,0.082916
770.878927,0.300000,0.150000
770.912498,-0.050000,0.043301
770.946069,-0.200000,0.061237
770.979639,-0.025000,0.073951
771.013209,0.100000,0.061237
771.046779,-0.600000,0.106066
771.080349,0.125000,0.147373
771.113919,0.125000,0.281458
771.147488,0.200000,0.061237
771.181057,0.100000,0.111803
771.214626,0.000000,0.000000
771.248194,0.200000,0.252488
771.281762,-0.100000,0.061237
771.315330,-0.125000,0.021651
771.348898,0.025000,0.064952
771.382465,-0.325000,0.021651
771.416033,0.225000,0.300780
771.449600,0.275000,0.163459
771.483166,0.575000,0.369755
771.516733,0.050000,0.075000
771.550299,0.450000,0.303109
771.583865,0.325000,0.265460
771.617431,-0.125000,0.054486
771.650996,0.150000,0.055902
771.684562,-0.100000,0.061237
771.718127,-0.125000,0.081968
771.751691,0.050000,0.025000
771.785256,-0.200000,0.061237
771.818820,-0.025000,0.119242
771.852384,0.050000,0.103078
771.885948,-0.000000,0.079057
771.919511,-0.225000,0.054486
771.953074,0.150000,0.075000
771.986637,0.250000,0.082916
772.020200,0.175000,0.073951
772.053762,-0.050000,0.075000
772.087325,0.025000,0.054486
772.120887,-0.175000,0.119242
772.154448,0.200000,0.061237
772.188010,0.000000,0.035355
772.221571,-0.050000,0.114564
772.255132,0.050000,0.082916
772.288692,-0.150000,0.055902
772.322253,0.075000,0.108253
772.355813,-0.275000,0.081968
772.389373,-0.250000,0.103078
772.422933,-0.225000,0.102317
772.456492,0.175000,0.073951
772.490051,0.475000,0.096014
772.523610,-0.050000,0.134629
772.557169,-0.050000,0.025000
772.590727,0.000000,0.127475
772.624285,0.300000,0.269258
772.657843,0.075000,0.041458
772.691401,-0.200000,0.154110
772.724958,0.400000,0.434454
772.758515,0.300000,0.302076
772.792072,-0.075000,0.054486
772.825629,-0.100000,0.093541
772.859185,0.525000,0.369755
772.892741,-0.050000,0.134629
772.926297,-0.125000,0.041458
772.959853,-0.125000,0.064952
772.993408,-0.725000,0.041458
773.026963,-0.100000,0.117260
773.060518,0.275000,0.238157
773.094073,-0.000000,0.212132
773.127627,-0.050000,0.103078
773.161181,0.100000,0.086603
773.194735,0.050000,0.075000
773.228289,-0.025000,0.216145
773.261842,-0.025000,0.184983
773.295395,-0.075000,0.198037
773.328948,0.275000,0.129301
773.362500,0.250000,0.129904
773.396053,-0.100000,0.061237
773.429605,-0.025000,0.081968
773.463157,0.250000,0.082916
773.496708,0.175000,0.096014
773.530260,-0.325000,0.073951
773.563811,-0.350000,0.043301
773.597361,-0.275000,0.041458
773.630912,0.075000,0.108253
773.664462,0.150000,0.134629
773.698012,-0.275000,0.041458
773.731562,0.000000,0.035355
773.765111,0.175000,0.113880
773.798661,0.000000,0.035355
773.832210,0.125000,0.096014
773.865758,0.050000,0.143614
773.899307,0.150000,0.103078
773.932855,0.075000,0.151554
773.966403,-0.225000,0.073951
773.999951,-0.100000,0.061237
774.033498,-0.050000,0.055902
774.067046,0.025000,0.064952
774.100593,0.150000,0.055902
774.134139,0.125000,0.054486
774.167686,0.100000,0.127475
774.201232,0.325000,0.238157
774.234778,0.125000,0.096014
774.268324,0.075000,0.064952
774.301869,0.075000,0.041458
774.335414,-0.275000,0.089268
774.368959,-0.100000,0.093541
774.402504,0.075000,0.124373
774.436048,-0.375000,0.096014
774.469592,0.500000,0.285044
774.503136,0.025000,0.073951
774.536680,0.000000,0.050000
774.570223,0.000000,0.061237
774.603766,0.500000,0.333542
774.637309,-0.025000,0.021651
774.670852,0.075000,0.041458
774.704394,-0.100000,0.106066
774.737936,-0.250000,0.075000
774.771478,-0.175000,0.108253
774.805020,-0.050000,0.090139
774.838561,0.050000,0.082916
774.872102,0.025000,0.096014
774.905643,0.050000,0.025000
774.939183,0.275000,0.073951
774.972724,0.225000,0.213234
775.006264,0.025000,0.113880
775.039804,0.575000,0.361205
775.073343,-0.300000,0.122474
775.106882,-0.325000,0.041458
775.140421,-0.025000,0.021651
775.173960,-0.475000,0.064952
775.207499,-0.325000,0.064952
775.241037,0.025000,0.041458
775.274575,-0.300000,0.061237
775.308113,-0.050000,0.134629
775.341650,0.050000,0.075000
775.375187,0.025000,0.073951
775.408724,-0.125000,0.155624
775.442261,-0.125000,0.041458
775.475798,-0.150000,0.114564
775.509334,0.000000,0.035355
775.542870,-0.050000,0.025000
775.576405,-0.100000,0.035355
775.609941,0.275000,0.167239
775.643476,0.025000,0.064952
775.677011,-0.375000,0.096014
775.710546,0.125000,0.073951
775.744080,0.100000,0.061237
775.777614,-0.050000,0.043301
775.811148,-0.100000,0.035355
775.844682,-0.175000,0.096014
775.878215,-0.100000,0.061237
775.911748,0.275000,0.213234
775.945281,-0.125000,0.041458
775.978814,-0.225000,0.124373
776.012346,-0.100000,0.035355
776.045878,-0.150000,0.082916
776.079410,0.150000,0.195256
776.112941,0.075000,0.124373
776.146473,-0.075000,0.041458
776.180004,-0.100000,0.035355
776.213535,0.450000,0.134629
776.247065,0.050000,0.043301
776.280595,0.050000,0.025000
776.314125,0.050000,0.082916
776.347655,-0.200000,0.061237
776.381185,-0.175000,0.073951
776.414714,0.550000,0.246221
776.448243,-0.175000,0.089268
776.481772,0.150000,0.277263
776.515300,0.000000,0.079057
776.548828,0.275000,0.213234
776.582356,-0.175000,0.054486
776.615884,0.525000,0.313000
776.649411,0.100000,0.180278
776.682938,-0.075000,0.073951
776.716465,0.125000,0.054486
776.749992,0.075000,0.147373
776.783518,0.350000,0.275000
776.817044,0.250000,0.075000
776.850570,0.250000,0.129904
776.884096,0.775000,0.477461
776.917621,-0.375000,0.064952
776.951146,0.075000,0.143069
776.984671,-0.450000,0.075000
777.018196,-0.000000,0.093541
777.051720,0.350000,0.182003
777.085244,0.150000,0.075000
777.118768,-0.475000,0.096014
777.152292,0.275000,0.151554
777.185815,0.075000,0.096014
777.219338,0.000000,0.154110
777.252861,-0.000000,0.145774
777.286383,-0.050000,0.192029
777.319905,-0.100000,0.000000
777.353427,0.125000,0.054486
777.386949,0.100000,0.070711
777.420471,0.750000,0.178536
777.453992,0.275000,0.272431
777.487513,0.175000,0.041458
777.521033,-0.225000,0.138632
777.554554,-0.025000,0.054486
777.588074,0.000000,0.117260
777.621594,0.025000,0.054486
777.655114,0.450000,0.082916
777.688633,0.325000,0.174553
777.722152,0.100000,0.079057
777.755671,0.350000,0.334477
777.789190,0.150000,0.219374
777.822708,-0.125000,0.124373
777.856226,0.175000,0.124373
777.889744,0.100000,0.061237
777.923261,-0.150000,0.075000
777.956779,-0.050000,0.025000
777.990296,-0.100000,0.061237
778.023812,0.125000,0.191621
778.057329,0.100000,0.154110
778.090845,0.175000,0.054486
778.124361,0.175000,0.113880
778.157877,-0.075000,0.073951
778.191392,-0.150000,0.055902
778.224908,-0.025000,0.096014
778.258423,0.025000,0.041458
778.291937,-0.150000,0.055902
778.325452,-0.050000,0.090139
778.358966,0.125000,0.227418
778.392480,-0.075000,0.064952
778.425993,0.175000,0.151554
778.459507,0.000000,0.061237
778.493020,0.150000,0.268095
778.526533,0.000000,0.093541
778.560045,0.000000,0.325960
778.593558,-0.050000,0.025000
778.627070,-0.250000,0.055902
778.660582,0.500000,0.413824
778.694093,-0.150000,0.055902
778.727605,0.050000,0.188746
778.761116,0.150000,0.055902
778.794626,0.000000,0.061237
778.828137,-0.025000,0.096014
778.861647,0.150000,0.134629
778.895157,0.075000,0.054486
778.928667,-0.050000,0.090139
778.962176,0.125000,0.054486
778.995686,0.100000,0.111803
779.029194,0.175000,0.054486
779.062703,0.050000,0.025000
779.096212,0.025000,0.147373
779.129720,0.275000,0.151554
779.163228,-0.025000,0.041458
779.196735,0.050000,0.160078
779.230243,-0.700000,0.070711
779.263750,-0.000000,0.086603
779.297257,0.000000,0.035355
779.330763,-0.100000,0.035355
779.364269,0.025000,0.108253
779.397776,0.050000,0.055902
779.431281,-0.050000,0.025000
779.464787,0.050000,0.075000
779.498292,0.050000,0.055902
779.531797,0.225000,0.143069
779.565302,0.025000,0.041458
779.598806,0.225000,0.230149
779.632311,0.150000,0.090139
779.665814,0.125000,0.064952
779.699318,0.150000,0.055902
779.732822,0.050000,0.055902
779.766325,0.000000,0.093541
779.799828,-0.000000,0.093541
779.833330,0.050000,0.134629
779.866833,-0.400000,0.079057
779.900335,0.050000,0.082916
779.933837,0.150000,0.167705
779.967338,-0.025000,0.041458
780.000840,-0.100000,0.061237
780.034341,-0.225000,0.119242
780.067841,0.175000,0.119242
780.101342,-0.150000,0.043301
780.134842,0.200000,0.127475
780.168342,-0.025000,0.096014
780.201842,0.150000,0.075000
780.235341,0.200000,0.093541
780.268841,0.050000,0.134629
780.302340,0.050000,0.082916
780.335838,0.225000,0.198037
780.369337,-0.050000,0.108972
780.402835,0.050000,0.055902
780.436333,0.000000,0.035355
780.469830,1.200000,0.475657
780.503328,0.275000,0.270127
780.536825,0.450000,0.219374
780.570322,0.100000,0.220794
780.603818,0.275000,0.147373
780.637315,0.275000,0.230149
780.670811,-0.050000,0.103078
780.704306,-0.100000,0.061237
780.737802,0.025000,0.054486
780.771297,0.175000,0.245904
780.804792,0.100000,0.035355
780.838287,0.050000,0.055902
780.871781,-0.100000,0.106066
780.905276,0.000000,0.106066
780.938770,-0.250000,0.075000
780.972263,-0.150000,0.103078
781.005757,0.150000,0.090139
781.039250,0.000000,0.061237
781.072743,0.450000,0.334477
781.106235,-0.075000,0.041458
781.139728,-0.075000,0.054486
781.173220,0.100000,0.061237
781.206712,0.050000,0.075000
781.240203,0.050000,0.025000
781.273694,-0.000000,0.093541
781.307185,0.025000,0.073951
781.340676,0.100000,0.145774
781.374167,0.175000,0.124373
781.407657,0.125000,0.102317
781.441147,-0.075000,0.054486
781.474636,0.025000,0.113880
781.508126,-0.150000,0.043301
781.541615,0.000000,0.050000
781.575104,-0.025000,0.124373
781.608593,0.250000,0.227761
781.642081,-0.075000,0.054486
781.675569,0.125000,0.089268
781.709057,0.125000,0.170935
781.742544,0.125000,0.064952
781.776032,-0.125000,0.108253
781.809519,-0.175000,0.081968
781.843006,0.100000,0.079057
781.876492,-0.025000,0.073951
781.909978,0.250000,0.219374
781.943464,0.100000,0.093541
781.976950,0.150000,0.114564
782.010435,0.050000,0.103078
782.043921,-0.050000,0.055902
782.077406,0.050000,0.025000
782.110890,0.175000,0.181573
782.144375,-0.075000,0.102317
782.177859,0.250000,0.125000
782.211343,-0.100000,0.136931
782.244826,0.300000,0.111803
782.278309,0.075000,0.134048
782.311792,-0.050000,0.082916
782.345275,0.400000,0.176777
782.378758,0.125000,0.227418
782.412240,-0.100000,0.111803
782.445722,0.000000,0.106066
782.479204,0.225000,0.198037
782.512685,0.075000,0.245904
782.546166,-0.025000,0.113880
782.579647,0.000000,0.035355
782.613128,0.125000,0.073951
782.646608,-0.025000,0.108253
782.680088,0.125000,0.054486
782.713568,-0.125000,0.089268
782.747048,0.150000,0.075000
782.780527,-0.300000,0.079057
782.814006,-0.150000,0.075000
782.847485,0.025000,0.138632
782.880963,-0.225000,0.054486
782.914442,-0.125000,0.041458
782.947920,-0.025000,0.147373
782.981397,0.025000,0.089268
783.014875,0.175000,0.041458
783.048352,-0.150000,0.103078
783.081829,0.175000,0.054486
783.115306,0.225000,0.089268
783.148782,-0.075000,0.054486
783.182258,-0.200000,0.079057
783.215734,1.000000,0.579871
783.249209,-0.050000,0.167705
783.282685,0.325000,0.155624
783.316160,0.000000,0.079057
783.349635,0.250000,0.251247
783.383109,-0.275000,0.054486
783.416583,-0.375000,0.054486
783.450057,-0.125000,0.089268
783.483531,0.025000,0.113880
783.517004,0.275000,0.073951
783.550477,0.375000,0.181573
783.583950,0.050000,0.055902
783.617423,0.125000,0.081968
783.650895,0.125000,0.064952
783.684367,-0.025000,0.113880
783.717839,-0.500000,0.100000
783.751311,-0.050000,0.167705
783.784782,-0.025000,0.081968
783.818253,-0.000000,0.079057
783.851724,0.100000,0.079057
783.885194,0.000000,0.035355
783.918665,-0.050000,0.043301
783.952134,0.150000,0.075000
783.985604,0.125000,0.041458
784.019074,0.000000,0.093541
784.052543,-0.075000,0.054486
784.086012,-0.025000,0.143069
784.119480,0.025000,0.147373
784.152948,0.300000,0.150000
784.186416,1.125000,0.575950
784.219884,-0.100000,0.061237
784.253352,1.125000,0.575950
784.286819,-0.100000,0.035355
784.320286,0.125000,0.134048
784.353753,-0.075000,0.081968
784.387219,-0.075000,0.064952
784.420685,0.175000,0.124373
784.454151,0.325000,0.339807
784.487617,-0.050000,0.192029
784.521082,0.375000,0.279229
784.554547,0.275000,0.096014
784.588012,0.000000,0.061237
784.621477,-0.050000,0.075000
784.654941,-0.100000,0.050000
784.688405,0.150000,0.143614
784.721869,0.050000,0.075000
784.755332,-0.100000,0.093541
784.788795,-0.025000,0.073951
784.822258,0.050000,0.090139
784.855721,0.100000,0.086603
784.889183,0.000000,0.070711
784.922646,-0.125000,0.073951
784.956107,0.175000,0.096014
784.989569,-0.050000,0.178536
785.023030,0.250000,0.216506
785.056491,-0.150000,0.043301
785.089952,0.050000,0.075000
785.123413,-0.100000,0.231840
785.156873,-0.100000,0.293684
785.190333,0.200000,0.154110
785.223792,0.525000,0.379761
785.257252,0.075000,0.089268
785.290711,0.075000,0.089268
785.324170,-0.050000,0.108972
785.357629,-0.100000,0.079057
785.391087,0.075000,0.064952
785.424545,0.075000,0.041458
785.458003,0.100000,0.093541
785.491460,0.125000,0.089268
785.524918,0.075000,0.194856
785.558375,0.100000,0.079057
785.591831,0.200000,0.154110
785.625288,0.100000,0.050000
785.658744,0.225000,0.108253
785.692200,-0.250000,0.055902
785.725655,0.150000,0.143614
785.759111,0.175000,0.124373
785.792566,0.200000,0.127475
785.826021,0.300000,0.266927
785.859475,-0.375000,0.089268
785.892930,0.000000,0.093541
785.926384,0.000000,0.050000
785.959837,0.050000,0.075000
785.993291,0.975000,0.357727
786.026744,0.350000,0.261008
786.060197,0.425000,0.155624
786.093649,0.225000,0.174553
786.127102,0.650000,0.296859
786.160554,0.000000,0.061237
786.194006,0.100000,0.122474
786.227457,-0.025000,0.041458
786.260909,0.125000,0.073951
786.294360,0.100000,0.035355
786.327810,0.075000,0.227418
786.361261,0.000000,0.035355
786.394711,-0.175000,0.021651
786.428161,-0.125000,0.064952
786.461611,0.200000,0.127475
786.495060,-0.025000,0.054486
786.528509,-0.075000,0.089268
786.561958,-0.050000,0.108972
786.595407,-0.025000,0.064952
786.628855,0.150000,0.075000
786.662303,-0.225000,0.041458
786.695751,0.025000,0.073951
786.729198,0.100000,0.106066
786.762645,0.100000,0.100000
786.796092,-0.075000,0.081968
786.829539,-0.125000,0.089268
786.862985,-0.225000,0.021651
786.896431,-0.175000,0.073951
786.929877,0.225000,0.207289
786.963323,0.125000,0.113880
786.996768,0.150000,0.082916
787.030213,0.100000,0.209165
787.063658,-0.225000,0.021651
787.097102,0.425000,0.181573
787.130547,-0.075000,0.191621
787.163991,-0.275000,0.041458
787.197434,-0.150000,0.075000
787.230878,0.300000,0.070711
787.264321,0.125000,0.041458
787.297764,-0.100000,0.035355
787.331206,0.275000,0.041458
787.364648,0.125000,0.054486
787.398090,0.150000,0.075000
787.431532,0.150000,0.108972
787.464974,0.025000,0.129301
787.498415,-0.025000,0.272431
787.531856,0.025000,0.089268
787.565296,-0.375000,0.108253
787.598737,0.175000,0.134048
787.632177,0.400000,0.093541
787.665617,-0.050000,0.082916
787.699056,-0.175000,0.064952
787.732496,-0.325000,0.041458
787.765935,0.350000,0.296859
787.799373,0.100000,0.176777
787.832812,0.400000,0.150000
787.866250,0.175000,0.124373
787.899688,0.525000,0.188331
787.933126,0.300000,0.079057
787.966563,0.100000,0.061237
788.000000,0.100000,0.086603
788.033437,0.025000,0.054486
788.066873,0.075000,0.155624
788.100310,0.300000,0.206155
788.133746,0.200000,0.136931
788.167181,0.525000,0.318934
788.200617,0.175000,0.089268
788.234052,0.100000,0.035355
788.267487,-0.250000,0.025000
788.300921,0.300000,0.346410
788.334356,0.275000,0.096014
788.367790,0.125000,0.096014
788.401224,0.150000,0.090139
788.434657,-0.050000,0.147902
788.468090,-0.275000,0.073951
788.501523,0.400000,0.061237
788.534956,0.150000,0.075000
788.568389,0.175000,0.041458
788.601821,0.400000,0.165831
788.635253,0.100000,0.154110
788.668684,0.075000,0.073951
788.702116,-0.025000,0.041458
788.735547,-0.150000,0.055902
788.768977,-0.050000,0.075000
788.802408,0.250000,0.114564
788.835838,0.150000,0.103078
788.869268,0.175000,0.041458
788.902698,0.075000,0.096014
788.936127,-0.100000,0.070711
788.969556,0.000000,0.122474
789.002985,0.200000,0.165831
789.036414,0.100000,0.136931
789.069842,-0.125000,0.073951
789.103270,0.150000,0.114564
789.136698,0.000000,0.035355
789.170125,-0.050000,0.055902
789.203552,0.150000,0.075000
789.236979,0.200000,0.061237
789.270406,-0.050000,0.075000
789.303832,0.300000,0.111803
789.337258,-0.025000,0.108253
789.370684,-0.125000,0.155624
789.404110,0.075000,0.064952
789.437535,0.200000,0.061237
789.470960,0.150000,0.195256
789.504385,0.025000,0.138632
789.537809,0.300000,0.379144
789.571233,0.125000,0.073951
789.604657,0.125000,0.096014
789.638081,0.200000,0.183712
789.671504,0.225000,0.124373
789.704927,0.825000,0.272431
789.738350,1.000000,0.514782
789.771772,1.075000,0.270127
789.805195,0.050000,0.114564
789.838617,0.025000,0.041458
789.872038,0.175000,0.054486
789.905460,-0.800000,0.079057
789.938881,0.050000,0.082916
789.972302,-0.050000,0.043301
790.005722,0.000000,0.070711
790.039143,-0.075000,0.073951
790.072563,0.125000,0.170935
790.105982,-0.025000,0.064952
790.139402,0.125000,0.108253
790.172821,-0.275000,0.041458
790.206240,0.150000,0.134629
790.239658,0.125000,0.054486
790.273077,0.225000,0.081968
790.306495,-0.150000,0.075000
790.339913,0.375000,0.210283
790.373330,0.025000,0.113880
790.406747,0.125000,0.081968
790.440164,0.000000,0.061237
790.473581,0.100000,0.136931
790.506997,0.125000,0.138632
790.540414,-0.075000,0.054486
790.573829,-0.100000,0.035355
790.607245,0.150000,0.025000
790.640660,-0.100000,0.035355
790.674075,0.175000,0.210283
790.707490,-0.075000,0.041458
790.740904,0.150000,0.055902
790.774319,0.075000,0.073951
790.807733,0.150000,0.195256
790.841146,-0.050000,0.055902
790.874560,-0.250000,0.075000
790.907973,0.000000,0.079057
790.941385,0.375000,0.181573
790.974798,0.050000,0.055902
791.008210,0.000000,0.061237
791.041622,-0.125000,0.064952
791.075034,0.125000,0.054486
791.108445,0.050000,0.103078
791.141856,0.200000,0.050000
791.175267,-0.175000,0.041458
791.208678,0.375000,0.184983
791.242088,0.125000,0.089268
791.275498,0.425000,0.405239
791.308908,-0.025000,0.064952
791.342317,0.350000,0.108972
791.375726,0.225000,0.041458
791.409135,0.100000,0.035355
791.442544,-0.225000,0.155624
791.475952,0.150000,0.055902
791.509360,0.075000,0.113880
791.542768,0.600000,0.266927
791.576176,0.950000,0.443706
791.609583,1.225000,0.434993
791.642990,1.575000,0.415895
791.676396,0.400000,0.070711
791.709803,0.700000,0.340955
791.743209,0.025000,0.021651
791.776615,0.150000,0.134629
791.810020,-0.100000,0.061237
791.843425,0.075000,0.113880
791.876830,-0.325000,0.073951
791.910235,0.125000,0.108253
791.943640,-0.275000,0.054486
791.977044,-0.100000,0.122474
792.010448,0.025000,0.064952
792.043851,-0.050000,0.125000
792.077254,-0.225000,0.054486
792.110658,-0.025000,0.089268
792.144060,0.000000,0.061237
792.177463,-0.075000,0.096014
792.210865,-0.125000,0.041458
792.244267,0.075000,0.054486
792.277668,0.100000,0.061237
792.311070,-0.200000,0.035355
792.344471,0.175000,0.054486
792.377872,0.025000,0.064952
792.411272,0.025000,0.096014
792.444672,0.125000,0.129301
792.478072,0.075000,0.073951
792.511472,-0.200000,0.061237
792.544871,0.250000,0.213600
792.578271,-0.150000,0.125000
792.611669,0.075000,0.102317
792.645068,0.050000,0.055902
792.678466,-0.275000,0.089268
792.711864,0.150000,0.311247
792.745262,0.150000,0.225000
792.778659,-0.125000,0.054486
792.812056,0.200000,0.203101
792.845453,0.300000,0.154110
792.878850,-0.050000,0.075000
792.912246,0.250000,0.114564
792.945642,0.075000,0.041458
792.979038,0.250000,0.147902
793.012433,0.150000,0.090139
793.045829,-0.175000,0.089268
793.079223,-0.150000,0.114564
793.112618,-0.150000,0.090139
793.146012,0.125000,0.113880
793.179406,-0.125000,0.041458
793.212800,-0.050000,0.134629
793.246194,0.000000,0.061237
793.279587,0.150000,0.025000
793.312980,0.175000,0.073951
793.346373,-0.250000,0.082916
793.379765,0.350000,0.225000
793.413157,1.275000,0.391112
793.446549,1.150000,0.256174
793.479940,2.675000,0.714471
793.513332,2.175000,0.509135
793.546723,2.025000,0.738559
793.580113,0.800000,0.700892
793.613504,0.225000,0.198037
793.646894,-0.175000,0.054486
793.680284,0.650000,0.340037
793.713673,0.025000,0.073951
793.747062,0.025000,0.041458
793.780451,-0.175000,0.041458
793.813840,-0.025000,0.073951
793.847228,0.100000,0.106066
793.880617,0.025000,0.089268
793.914004,0.075000,0.021651
793.947392,-0.250000,0.114564
793.980779,-0.275000,0.064952
794.014166,-0.125000,0.102317
794.047553,-0.075000,0.064952
794.080940,0.050000,0.075000
794.114326,-0.125000,0.041458
794.147712,-0.025000,0.096014
794.181097,-0.025000,0.124373
794.214483,0.225000,0.089268
794.247868,0.075000,0.081968
794.281252,0.175000,0.021651
794.314637,-0.175000,0.143069
794.348021,-0.125000,0.073951
794.381405,-0.125000,0.073951
794.414788,0.075000,0.096014
794.448172,0.075000,0.041458
794.481555,0.000000,0.061237
794.514938,0.075000,0.155624
794.548320,-0.225000,0.064952
794.581702,-0.125000,0.073951
794.615084,0.050000,0.082916
794.648466,-0.050000,0.082916
794.681847,0.125000,0.041458
794.715228,-0.675000,0.073951
794.748609,-0.200000,0.176777
794.781990,-0.375000,0.324760
794.815370,0.600000,0.117260
794.848750,0.400000,0.324037
794.882129,-0.350000,0.082916
794.915509,0.100000,0.079057
794.948888,-0.325000,0.124373
794.982267,0.025000,0.108253
795.015645,-0.250000,0.125000
795.049023,0.200000,0.215058
795.082401,0.175000,0.073951
795.115779,-0.050000,0.090139
795.149156,0.000000,0.154110
795.182534,0.125000,0.113880
795.215910,0.175000,0.041458
795.249287,0.125000,0.113880
795.282663,1.125000,0.389511
795.316039,2.750000,0.656220
795.349415,3.225000,0.406779
795.382790,5.800000,0.117260
795.416165,4.050000,0.864942
795.449540,2.725000,0.201168
795.482915,0.725000,0.366359
795.516289,0.600000,0.306186
795.549663,-0.025000,0.021651
795.583037,0.025000,0.089268
795.616410,0.175000,0.102317
795.649783,-0.350000,0.090139
795.683156,0.175000,0.129301
795.716529,0.375000,0.276981
795.749901,-0.100000,0.035355
795.783273,0.050000,0.075000
795.816645,-0.200000,0.061237
795.850016,-0.025000,0.054486
795.883387,0.075000,0.064952
795.916758,0.050000,0.108972
795.950129,0.150000,0.134629
795.983499,-0.250000,0.075000
796.016869,-0.200000,0.173205
796.050239,-0.450000,0.082916
796.083608,0.075000,0.041458
796.116977,-0.100000,0.000000
796.150346,-0.275000,0.089268
796.183714,0.100000,0.093541
796.217083,0.375000,0.238157
796.250451,0.125000,0.283670
796.283818,0.000000,0.070711
796.317186,-0.275000,0.073951
796.350553,-0.025000,0.054486
796.383920,-0.175000,0.041458
796.417286,0.050000,0.043301
796.450653,-0.100000,0.050000
796.484019,0.225000,0.147373
796.517384,-0.125000,0.064952
796.550750,0.225000,0.174553
796.584115,0.100000,0.079057
796.617480,-0.225000,0.081968
796.650844,0.050000,0.075000
796.684209,0.300000,0.237171
796.717573,0.025000,0.096014
796.750936,0.375000,0.213234
796.784300,0.225000,0.064952
796.817663,-0.150000,0.103078
796.851026,-0.175000,0.096014
796.884388,-0.150000,0.082916
796.917751,0.125000,0.108253
796.951113,-0.175000,0.089268
796.984474,-0.025000,0.073951
797.017836,0.000000,0.100000
797.051197,0.175000,0.290205
797.084558,-0.250000,0.075000
797.117918,0.375000,0.155624
797.151279,0.800000,0.588430
797.184639,1.775000,0.510361
797.217998,3.525000,0.743619
797.251358,5.250000,0.608790
797.284717,5.033333,1.000833
797.318076,6.025000,1.116566
797.351434,1.650000,0.305164
797.384793,0.800000,0.244949
797.418151,0.200000,0.111803
797.451508,0.100000,0.127475
797.484866,-0.100000,0.061237
797.518223,0.275000,0.155624
797.551580,-0.175000,0.064952
797.584936,-0.025000,0.041458
797.618292,-0.025000,0.184983
797.651648,0.175000,0.129301
797.685004,0.175000,0.134048
797.718360,0.025000,0.081968
797.751715,0.025000,0.021651
797.785069,0.125000,0.054486
797.818424,0.075000,0.129301
797.851778,0.250000,0.125000
797.885132,-0.450000,0.075000
797.918486,-0.125000,0.054486
797.951839,-0.100000,0.079057
797.985192,0.175000,0.129301
798.018545,0.250000,0.167705
798.051898,0.100000,0.145774
798.085250,0.050000,0.025000
798.118602,0.275000,0.143069
798.151954,-0.150000,0.125000
798.185305,-0.150000,0.025000
798.218656,0.375000,0.245904
798.252007,0.650000,0.286138
798.285357,0.525000,0.167239
798.318708,0.050000,0.175000
798.352057,0.050000,0.055902
798.385407,0.125000,0.102317
798.418756,0.150000,0.152069
798.452106,0.275000,0.096014
798.485454,-0.225000,0.041458
798.518803,0.225000,0.041458
798.552151,0.075000,0.119242
798.585499,0.100000,0.111803
798.618847,-0.100000,0.127475
798.652194,-0.100000,0.070711
798.685541,0.250000,0.043301
798.718888,0.200000,0.079057
798.752234,-0.050000,0.025000
798.785580,-0.000000,0.086603
798.818926,0.100000,0.061237
798.852272,0.000000,0.122474
798.885617,0.150000,0.389711
798.918962,0.200000,0.111803
798.952307,0.400000,0.406202
798.985651,0.250000,0.129904
799.018996,0.300000,0.154110
799.052339,1.375000,0.400586
799.085683,1.900000,0.498748
799.119026,5.400000,0.459619
799.152369,9.675000,0.962662
799.185712,10.450000,0.363146
799.219054,7.600000,1.032594
799.252397,2.650000,0.248747
799.285738,0.425000,0.288043
799.319080,-0.100000,0.079057
799.352421,0.075000,0.064952
799.385762,-0.025000,0.108253
799.419103,0.175000,0.272431
799.452443,0.125000,0.041458
799.485783,0.050000,0.075000
799.519123,0.800000,0.306186
799.552463,0.100000,0.093541
799.585802,0.250000,0.108972
799.619141,0.100000,0.070711
799.652480,-0.125000,0.210283
799.685818,-0.250000,0.025000
799.719156,0.075000,0.073951
799.752494,0.500000,0.136931
799.785831,0.450000,0.182003
799.819169,-0.050000,0.082916
799.852506,-0.100000,0.093541
799.885842,-0.175000,0.073951
799.919179,0.325000,0.348882
799.952515,-0.025000,0.041458
799.985850,0.125000,0.113880
800.019186,0.150000,0.160078
800.052521,-0.200000,0.106066
800.085856,-0.375000,0.041458
800.119191,0.075000,0.089268
800.152525,-0.175000,0.041458
800.185859,0.300000,0.122474
800.219193,0.150000,0.082916
800.252526,0.050000,0.103078
800.285859,0.225000,0.290205
800.319192,0.075000,0.096014
800.352525,0.125000,0.041458
800.385857,-0.075000,0.054486
800.419189,0.175000,0.041458
800.452521,0.575000,0.198037
800.485852,0.250000,0.114564
800.519183,-0.300000,0.106066
800.552514,-0.100000,0.203101
800.585844,-0.275000,0.170935
800.619175,0.625000,0.224653
800.652505,0.625000,0.188331
800.685834,0.675000,0.265460
800.719164,-0.025000,0.054486
800.752493,-0.100000,0.079057
800.785821,-0.025000,0.102317
800.819150,-0.200000,0.117260
800.852478,0.100000,0.079057
800.885806,0.150000,0.075000
800.919134,0.325000,0.081968
800.952461,0.525000,0.462838
800.985788,2.975000,0.671170
801.019115,8.725000,0.527227
801.052441,20.075000,1.317846
801.085767,30.400000,1.769887
801.119093,28.900000,2.054568
801.152419,9.625000,0.860505
801.185744,3.500000,0.480885
801.219069,0.500000,0.413824
801.252394,-0.075000,0.096014
801.285718,0.550000,0.388104
801.319042,0.200000,0.150000
801.352366,-0.150000,0.114564
801.385690,0.475000,0.207289
801.419013,-0.250000,0.541410
801.452336,0.750000,0.525000
801.485658,-0.225000,0.304908
801.518981,0.550000,0.256174
801.552303,0.325000,0.174553
801.585625,0.625000,0.265460
801.618946,-0.000000,0.127475
801.652267,-0.100000,0.169558
801.685588,0.150000,0.082916
801.718909,0.500000,0.287228
801.752229,0.375000,0.064952
801.785549,0.150000,0.075000
801.818869,0.150000,0.134629
801.852188,-0.325000,0.113880
801.885507,0.200000,0.079057
801.918826,0.500000,0.086603
801.952145,0.575000,0.417395
801.985463,0.125000,0.108253
802.018781,0.125000,0.089268
802.052099,0.025000,0.113880
802.085416,-0.075000,0.041458
802.118733,0.225000,0.096014
802.152050,0.075000,0.108253
802.185366,-0.000000,0.150000
802.218683,0.275000,0.081968
802.251999,0.525000,0.542419
802.285314,-0.150000,0.147902
802.318630,0.250000,0.043301
802.351945,0.375000,0.201168
802.385259,0.525000,0.440703
802.418574,0.075000,0.143069
802.451888,0.400000,0.150000
802.485202,0.200000,0.127475
802.518515,0.400000,0.231840
802.551829,0.125000,0.089268
802.585142,0.625000,0.188331
802.618454,0.400000,0.127475
802.651767,0.075000,0.108253
802.685079,-0.525000,0.096014
802.718391,0.225000,0.143069
802.751702,0.025000,0.041458
802.785013,0.325000,0.174553
802.818324,0.200000,0.176777
802.851635,0.450000,0.275000
802.884945,0.675000,0.163459
802.918255,5.150000,0.482830
802.951565,18.466667,0.624833
802.984874,37.600000,2.158414
803.018184,50.075000,2.179844
803.051492,33.650000,0.806613
803.084801,6.425000,0.905107
803.118109,0.875000,0.495448
803.151417,-0.150000,0.275000
803.184725,0.225000,0.041458
803.218032,0.025000,0.041458
803.251339,0.350000,0.129904
803.284646,0.000000,0.079057
803.317953,0.450000,0.396074
803.351259,-0.200000,0.136931
803.384565,-0.125000,0.041458
803.417870,0.175000,0.155624
803.451176,0.075000,0.054486
803.484481,0.050000,0.175000
803.517786,0.125000,0.041458
803.551090,0.125000,0.041458
803.584394,0.075000,0.288043
803.617698,-0.075000,0.054486
803.651002,0.450000,0.343693
803.684305,0.125000,0.129301
803.717608,-0.075000,0.096014
803.750910,0.050000,0.251247
803.784213,0.825000,0.240767
803.817515,0.250000,0.103078
803.850817,-0.275000,0.147373
803.884118,0.275000,0.134048
803.917419,0.925000,0.599349
803.950720,0.725000,0.245904
803.984021,0.200000,0.150000
804.017321,0.200000,0.061237
804.050621,-0.050000,0.125000
804.083921,0.125000,0.113880
804.117220,0.100000,0.061237
804.150519,0.200000,0.145774
804.183818,0.175000,0.155624
804.217117,-0.250000,0.129904
804.250415,-0.000000,0.093541
804.283713,0.225000,0.181573
804.317011,0.125000,0.194856
804.350308,0.075000,0.108253
804.383605,0.125000,0.041458
804.416902,0.025000,0.021651
804.450198,0.200000,0.035355
804.483494,0.275000,0.194856
804.516790,0.150000,0.103078
804.550086,-0.050000,0.114564
804.583381,-0.025000,0.181573
804.616676,0.600000,0.093541
804.649971,0.400000,0.162019
804.683265,0.150000,0.178536
804.716559,-0.450000,0.090139
804.749853,0.575000,0.198037
804.783146,-0.100000,0.079057
804.816440,2.300000,0.591608
804.849732,6.825000,0.871332
804.883025,31.866667,1.164224
804.916317,57.700000,1.354622
804.949609,68.933333,1.240128
804.982901,43.566667,0.745263
805.016192,9.466667,0.354142
805.049484,2.600000,0.767300
805.082774,-0.025000,0.240767
805.116065,0.175000,0.163459
805.149355,0.000000,0.035355
805.182645,0.450000,0.394493
805.215935,0.175000,0.064952
805.249224,0.400000,0.322102
805.282513,0.700000,0.362284
805.315802,0.075000,0.054486
805.349090,0.175000,0.073951
805.382378,0.100000,0.117260
805.415666,0.200000,0.242384
805.448954,0.225000,0.089268
805.482241,0.075000,0.113880
805.515528,0.025000,0.041458
805.548815,0.575000,0.167239
805.582101,0.275000,0.124373
805.615387,0.050000,0.114564
805.648673,0.475000,0.281458
805.681958,-0.200000,0.061237
805.715243,0.200000,0.203101
805.748528,0.250000,0.075000
805.781813,-0.300000,0.093541
805.815097,0.325000,0.232849
805.848381,-0.175000,0.198037
805.881665,-0.225000,0.188331
805.914948,0.325000,0.191621
805.948231,-0.175000,0.041458
805.981514,0.225000,0.188331
806.014796,0.500000,0.302076
806.048079,0.225000,0.064952
806.081360,-0.125000,0.054486
806.114642,0.050000,0.108972
806.147923,-0.125000,0.054486
806.181204,0.450000,0.235850
806.214485,-0.150000,0.114564
806.247765,0.325000,0.159589
806.281046,0.275000,0.155624
806.314325,0.250000,0.219374
806.347605,0.350000,0.075000
806.380884,-0.675000,0.147373
806.414163,-0.000000,0.079057
806.447441,0.525000,0.258300
806.480720,0.200000,0.035355
806.513998,0.150000,0.082916
806.547275,0.225000,0.081968
806.580553,0.225000,0.108253
806.613830,0.350000,0.075000
806.647107,0.950000,0.625000
806.680383,0.100000,0.035355
806.713659,0.300000,0.106066
806.746935,1.175000,0.178098
806.780211,12.450000,1.410009
806.813486,49.400000,1.842213
806.846761,106.575000,3.679398
806.880036,140.425000,2.886255
806.913310,114.166667,3.146691
806.946584,40.633333,1.632610
806.979858,6.450000,0.996557
807.013132,0.525000,0.194856
807.046405,0.675000,0.198037
807.079678,0.650000,0.225000
807.112951,0.425000,0.155624
807.146223,0.175000,0.188331
807.179495,0.200000,0.127475
807.212767,-0.350000,0.103078
807.246038,0.175000,0.143069
807.279309,0.100000,0.070711
807.312580,0.025000,0.245904
807.345850,-0.100000,0.106066
807.379121,0.025000,0.089268
807.412390,0.175000,0.174553
807.445660,0.300000,0.079057
807.478929,1.125000,0.679499
807.512198,0.425000,0.198037
807.545467,-0.050000,0.167705
807.578735,0.550000,0.219374
807.612004,-0.275000,0.337963
807.645271,0.200000,0.231840
807.678539,-0.100000,0.242384
807.711806,0.275000,0.134048
807.745073,-0.075000,0.041458
807.778340,0.100000,0.136931
807.811606,0.650000,0.251247
807.844872,0.750000,0.402337
807.878138,0.250000,0.134629
807.911403,0.225000,0.151554
807.944668,0.975000,0.272431
807.977933,0.775000,0.495448
808.011197,0.950000,0.686932
808.044462,0.300000,0.247487
808.077725,0.500000,0.395285
808.110989,0.300000,0.136931
808.144252,0.500000,0.162019
808.177515,0.575000,0.178098
808.210778,0.075000,0.255869
808.244040,0.275000,0.108253
808.277302,-0.225000,0.181573
808.310564,0.300000,0.127475
808.343826,1.125000,0.267804
808.377087,0.175000,0.163459
808.410348,0.375000,0.089268
808.443608,0.125000,0.064952
808.476869,0.350000,0.175000
808.510129,0.000000,0.111803
808.543388,-0.033333,0.054006
808.576648,0.525000,0.124373
808.609907,0.475000,0.151554
808.643165,0.300000,0.162019
808.676424,1.150000,0.436606
808.709682,5.625000,0.518863
808.742940,41.500000,1.895719
808.776197,154.150000,2.571600
808.809455,224.366667,2.044912
808.842712,235.850000,8.702909
808.875968,142.825000,2.493586
808.909225,27.575000,2.233656
808.942481,4.400000,0.501248
808.975736,0.525000,0.163459
809.008992,0.225000,0.113880
809.042247,0.350000,0.256174
809.075502,0.175000,0.096014
809.108756,-0.825000,0.041458
809.142011,0.525000,0.300780
809.175265,0.200000,0.237171
809.208518,0.225000,0.041458
809.241772,0.000000,0.111803
809.275025,0.325000,0.204252
809.308277,0.075000,0.238157
809.341530,0.350000,0.192029
809.374782,0.850000,0.309233
809.408034,0.450000,0.248747
809.441285,-0.525000,0.064952
809.474536,-0.325000,0.245904
809.507787,-0.325000,0.155624
809.541038,0.025000,0.108253
809.574288,0.000000,0.145774
809.607538,-0.125000,0.151554
809.640788,0.575000,0.265460
809.674037,0.800000,0.419821
809.707286,0.375000,0.184983
809.740535,0.350000,0.296859
809.773783,0.475000,0.096014
809.807032,0.625000,0.296595
809.840279,-0.100000,0.524404
809.873527,-0.425000,0.167239
809.906774,0.175000,0.119242
809.940021,-0.050000,0.160078
809.973268,0.550000,0.207666
810.006514,-0.075000,0.113880
810.039760,0.125000,0.174553
810.073006,0.550000,0.350892
810.106251,0.425000,0.163459
810.139497,0.450000,0.143614
810.172741,0.500000,0.154110
810.205986,0.350000,0.219374
810.239230,-0.225000,0.227418
810.272474,1.375000,0.556074
810.305718,0.700000,0.637377
810.338961,0.225000,0.300780
810.372204,0.700000,0.327872
810.405447,-0.075000,0.387903
810.438689,1.050000,0.541410
810.471931,-0.500000,0.093541
810.505173,0.375000,0.147373
810.538414,0.550000,0.301040
810.571656,0.025000,0.113880
810.604897,0.750000,0.188746
810.638137,1.175000,0.314990
810.671377,11.800000,0.459619
810.704617,89.050000,5.419006
810.737857,352.733333,4.964541
810.771096,516.600000,10.329146
810.804335,489.425000,7.491276
810.837574,245.025000,7.405351
810.870813,35.733333,1.407273
810.904051,4.100000,0.302076
810.937288,1.100000,0.340955
810.970526,0.000000,0.070711
811.003763,-0.075000,0.210283
811.037000,0.725000,0.366359
811.070237,-0.300000,0.079057
811.103473,-0.150000,0.129904
811.136709,0.250000,0.251247
811.169945,-0.425000,0.124373
811.203180,0.125000,0.138632
811.236415,0.450000,0.225000
811.269650,-0.150000,0.055902
811.302884,0.075000,0.147373
811.336119,-0.250000,0.090139
811.369352,0.425000,0.283670
811.402586,0.300000,0.212132
811.435819,-0.525000,0.516448
811.469052,0.400000,0.502494
811.502285,-0.525000,0.300780
811.535517,0.175000,0.861956
811.568749,-0.575000,0.386288
811.601981,-0.425000,0.320887
811.635212,0.025000,0.207289
811.668443,-0.075000,0.041458
811.701674,0.175000,0.124373
811.734905,0.525000,0.258300
811.768135,1.150000,0.625000
811.801365,0.900000,0.379144
811.834594,0.000000,0.310242
811.867824,-0.300000,0.150000
811.901053,-0.125000,0.113880
811.934281,0.000000,0.127475
811.967510,-0.025000,0.300780
812.000738,-0.100000,0.035355
812.033965,0.350000,0.261008
812.067193,0.025000,0.245904
812.100420,0.200000,0.111803
812.133647,-0.275000,0.073951
812.166873,-1.025000,0.188331
812.200099,-0.025000,0.041458
812.233325,-0.025000,0.138632
812.266551,0.050000,0.129904
812.299776,-0.100000,0.127475
812.333001,0.175000,0.124373
812.366226,0.150000,0.134629
812.399450,0.500000,0.544289
812.432674,-0.175000,0.119242
812.465898,-0.475000,0.167239
812.499121,0.825000,0.421863
812.532345,0.300000,0.289396
812.565567,0.725000,0.178098
812.598790,1.425000,0.495448
812.632012,3.400000,0.459619
812.665234,22.125000,0.529593
812.698456,111.850000,3.294788
812.731677,201.633333,3.875296
812.764898,203.225000,3.802528
812.798119,118.225000,4.814610
812.831339,19.100000,1.259464
812.864559,3.000000,0.635413
812.897779,0.925000,0.238157
812.930998,0.650000,0.283945
812.964217,0.050000,0.055902
812.997436,0.000000,0.035355
813.030655,0.225000,0.159589
813.063873,0.075000,0.108253
813.097091,-0.150000,0.043301
813.130308,-0.475000,0.073951
813.163526,0.250000,0.143614
813.196743,-0.225000,0.021651
813.229959,0.225000,0.064952
813.263176,0.450000,0.195256
813.296392,-0.000000,0.291548
813.329607,0.175000,0.216145
813.362823,0.100000,0.035355
813.396038,0.075000,0.081968
813.429253,0.200000,0.176777
813.462467,-0.200000,0.136931
813.495682,0.275000,0.253414
813.528895,-0.025000,0.041458
813.562109,0.125000,0.181573
813.595322,0.550000,0.261008
813.628535,0.675000,0.354216
813.661748,0.025000,0.119242
813.694960,0.275000,0.415895
813.728172,-0.125000,0.089268
813.761384,-0.025000,0.129301
813.794596,-0.450000,0.125000
813.827807,-0.450000,0.055902
813.861017,0.575000,0.245904
813.894228,0.200000,0.150000
813.927438,0.625000,0.373120
813.960648,0.175000,0.041458
813.993858,-0.100000,0.111803
814.027067,0.150000,0.175000
814.060276,-0.075000,0.073951
814.093485,-0.200000,0.050000
814.126693,-0.300000,0.086603
814.159901,-0.150000,0.134629
814.193109,-0.600000,0.061237
814.226316,0.175000,0.155624
814.259523,0.125000,0.041458
814.292730,-0.200000,0.061237
814.325936,0.200000,0.117260
814.359143,0.150000,0.129904
814.392348,0.100000,0.122474
814.425554,0.275000,0.267804
814.458759,0.175000,0.134048
814.491964,-0.375000,0.041458
814.525169,0.400000,0.337268
814.558373,-0.150000,0.075000
814.591577,0.350000,0.238485
814.624781,-0.175000,0.054486
814.657984,0.525000,0.250936
