#{
#    "background_file": "Backgrounds\\\\bg_787.999nm_16bin_197st_244en_10.0s_110g_4x_1_seq.txt",
#    "ccd_image_settings": [
#        1,
#        16,
#        1,
#        1600,
#        197,
#        244
#    ],
#    "ccd_temperature": "-88",
#    "cdRatios": {
#        "mean": 0.9315427521297905,
#        "std": 0.006342631191470472
#    },
#    "center_lambda": 788.0,
#    "comments": "",
#    "dark_region": 0.2635428387963888,
#    "date": "11/17/19 13:51:14PM",
#    "eff_field": 1.5,
#    "exposure": 10.0,
#    "fel_lambda": "15.0",
#    "fel_pol": "H",
#    "fel_pulses": 40,
#    "fel_pyro_cal": "0.017",
#    "fel_reprate": "1.07",
#    "fel_transmission": "1.0",
#    "fel_transmission_fits": {
#        "A": 1.0,
#        "C": 0.0,
#        "Mu": 0.0
#    },
#    "fieldInt": {
#        "mean": 9283.376545454545,
#        "std": 447.64015441976215
#    },
#    "fieldStrength": {
#        "mean": 44.19286363636363,
#        "std": 1.0637792473901055
#    },
#    "fpTime": {
#        "mean": 1.1112115202582484,
#        "std": 0.06630132098671929
#    },
#    "gain": 110,
#    "grating": 3,
#    "images_in_sequence": [
#        "hsg_SpotD_crystal16_a90_HAna21.txt",
#        "hsg_SpotD_crystal16_a90_HAna22.txt",
#        "hsg_SpotD_crystal16_a90_HAna23.txt",
#        "hsg_SpotD_crystal16_a90_HAna24.txt"
#    ],
#    "nir_lambda": "820.9918",
#    "nir_pola": "90",
#    "nir_polg": "0",
#    "nir_power": "100.0",
#    "pulseEnergies": {
#        "mean": 1.9995681818181819,
#        "std": 0.10871341427186468
#    },
#    "pyroVoltage": {
#        "mean": 0.1263359271095362,
#        "std": 0.007671539700300534
#    },
#    "rotatorAngle": 90.0,
#    "sample_Temp": "58",
#    "sample_name": "L001218.C3",
#    "series": "SpotD_16_90",
#    "slits": "60",
#    "spec_step": "",
#    "window_trans": 0.92,
#    "y_max": 2,
#    "y_min": 1
#}
#
#
#
#
#
#
#
#
#
#
#
#
#
#
#
#
#
#
#
#
#
#
#
#
#
#
Wavelength,Signal,error
nm,arb. u.,arb.u.
Wavelength,SpotD_16_90,error
761.200217,0.125000,0.096014
761.233859,-0.025000,0.073951
761.267500,0.300000,0.141421
761.301141,-0.025000,0.167239
761.334781,0.075000,0.178098
761.368422,-0.225000,0.188331
761.402062,0.000000,0.000000
761.435702,-0.375000,0.102317
761.469342,-0.150000,0.055902
761.502981,-0.025000,0.041458
761.536620,-0.125000,0.073951
761.570259,-0.125000,0.073951
761.603898,-0.175000,0.054486
761.637537,-0.150000,0.075000
761.671175,-0.275000,0.089268
761.704813,0.025000,0.108253
761.738451,0.100000,0.061237
761.772088,-0.100000,0.061237
761.805726,-0.175000,0.096014
761.839363,-0.300000,0.061237
761.873000,-0.425000,0.073951
761.906636,0.075000,0.151554
761.940273,-0.025000,0.021651
761.973909,0.075000,0.041458
762.007545,0.650000,0.265754
762.041180,-0.525000,0.064952
762.074816,-0.175000,0.064952
762.108451,0.125000,0.064952
762.142086,0.225000,0.041458
762.175720,0.150000,0.075000
762.209355,-0.050000,0.134629
762.242989,0.150000,0.075000
762.276623,-0.125000,0.041458
762.310257,0.100000,0.165831
762.343890,-0.400000,0.093541
762.377524,-0.075000,0.143069
762.411157,0.400000,0.297909
762.444789,0.075000,0.163459
762.478422,-0.025000,0.054486
762.512054,-0.025000,0.021651
762.545686,0.050000,0.103078
762.579318,-0.025000,0.096014
762.612950,0.100000,0.035355
762.646581,-0.025000,0.240767
762.680212,0.225000,0.073951
762.713843,0.050000,0.103078
762.747474,0.225000,0.170935
762.781104,0.850000,0.467039
762.814734,-0.525000,0.216145
762.848364,-0.200000,0.079057
762.881994,0.000000,0.061237
762.915623,-0.075000,0.041458
762.949252,0.200000,0.079057
762.982881,0.075000,0.073951
763.016510,-0.150000,0.055902
763.050139,-0.250000,0.082916
763.083767,-0.100000,0.061237
763.117395,-0.075000,0.041458
763.151023,0.075000,0.054486
763.184650,0.325000,0.198037
763.218277,0.100000,0.183712
763.251904,-0.150000,0.055902
763.285531,0.075000,0.188331
763.319158,0.150000,0.129904
763.352784,-0.200000,0.127475
763.386410,-0.100000,0.122474
763.420036,-0.425000,0.134048
763.453661,0.175000,0.198037
763.487287,0.275000,0.267804
763.520912,-0.400000,0.242384
763.554537,-0.125000,0.081968
763.588161,0.200000,0.384057
763.621786,-0.175000,0.073951
763.655410,0.425000,0.300780
763.689034,0.050000,0.125000
763.722657,0.025000,0.147373
763.756281,0.475000,0.265460
763.789904,0.000000,0.061237
763.823527,-0.075000,0.108253
763.857150,-0.025000,0.155624
763.890772,-0.425000,0.064952
763.924394,-0.100000,0.050000
763.958016,0.175000,0.064952
763.991638,0.250000,0.225000
764.025260,0.225000,0.054486
764.058881,0.525000,0.265460
764.092502,-0.375000,0.073951
764.126123,-0.025000,0.064952
764.159743,0.000000,0.061237
764.193363,-0.075000,0.054486
764.226983,0.100000,0.061237
764.260603,0.300000,0.158114
764.294223,-0.250000,0.043301
764.327842,-0.000000,0.093541
764.361461,0.025000,0.113880
764.395080,0.000000,0.136931
764.428699,-0.100000,0.035355
764.462317,-0.050000,0.082916
764.495935,-0.175000,0.073951
764.529553,0.250000,0.277263
764.563170,0.175000,0.041458
764.596788,0.125000,0.021651
764.630405,-0.100000,0.070711
764.664022,-0.200000,0.035355
764.697638,0.200000,0.070711
764.731255,0.150000,0.114564
764.764871,0.275000,0.354216
764.798487,-0.175000,0.073951
764.832103,-0.050000,0.043301
764.865718,0.175000,0.119242
764.899333,-0.025000,0.096014
764.932948,-0.175000,0.054486
764.966563,-0.100000,0.079057
765.000177,0.025000,0.119242
765.033792,-0.150000,0.043301
765.067406,0.325000,0.174553
765.101019,-0.050000,0.075000
765.134633,-0.400000,0.079057
765.168246,0.025000,0.096014
765.201859,-0.025000,0.041458
765.235472,0.225000,0.041458
765.269084,-0.025000,0.054486
765.302697,-0.350000,0.055902
765.336309,0.150000,0.055902
765.369920,0.425000,0.124373
765.403532,0.000000,0.035355
765.437143,-0.325000,0.102317
765.470754,0.125000,0.081968
765.504365,0.275000,0.151554
765.537976,-0.025000,0.041458
765.571586,-0.200000,0.093541
765.605196,-0.200000,0.035355
765.638806,0.025000,0.073951
765.672416,0.000000,0.070711
765.706025,0.125000,0.073951
765.739634,0.075000,0.073951
765.773243,0.125000,0.064952
765.806851,0.000000,0.061237
765.840460,0.175000,0.155624
765.874068,0.125000,0.021651
765.907676,-0.175000,0.054486
765.941284,0.075000,0.041458
765.974891,0.175000,0.064952
766.008498,-0.025000,0.054486
766.042105,0.000000,0.117260
766.075712,-0.200000,0.061237
766.109318,0.025000,0.184983
766.142924,0.075000,0.054486
766.176530,-0.600000,0.093541
766.210136,0.100000,0.145774
766.243741,0.200000,0.209165
766.277347,-0.200000,0.061237
766.310951,-0.150000,0.025000
766.344556,0.100000,0.061237
766.378161,0.175000,0.081968
766.411765,-0.150000,0.055902
766.445369,-0.250000,0.075000
766.478973,-0.200000,0.035355
766.512576,0.300000,0.176777
766.546179,-0.075000,0.041458
766.579782,-0.200000,0.070711
766.613385,0.000000,0.061237
766.646988,-0.250000,0.082916
766.680590,0.200000,0.127475
766.714192,0.300000,0.150000
766.747794,-0.175000,0.089268
766.781395,0.750000,0.238485
766.814996,-0.525000,0.041458
766.848597,0.250000,0.152069
766.882198,0.250000,0.043301
766.915799,0.000000,0.035355
766.949399,0.225000,0.143069
766.982999,0.075000,0.081968
767.016599,-0.075000,0.081968
767.050198,0.000000,0.127475
767.083798,-0.100000,0.093541
767.117397,0.050000,0.055902
767.150996,0.000000,0.035355
767.184594,0.025000,0.178098
767.218193,-0.050000,0.082916
767.251791,-0.175000,0.108253
767.285389,-0.250000,0.055902
767.318986,0.400000,0.280624
767.352583,0.450000,0.305164
767.386181,0.075000,0.096014
767.419777,-0.125000,0.108253
767.453374,0.425000,0.198037
767.486970,-0.350000,0.025000
767.520567,0.025000,0.054486
767.554162,0.000000,0.061237
767.587758,0.775000,0.178098
767.621353,0.150000,0.055902
767.654949,0.475000,0.440703
767.688543,0.075000,0.064952
767.722138,-0.050000,0.055902
767.755732,0.175000,0.041458
767.789327,-0.200000,0.050000
767.822921,-0.350000,0.025000
767.856514,-0.150000,0.192029
767.890108,0.100000,0.061237
767.923701,0.050000,0.204634
767.957294,0.275000,0.181573
767.990886,0.150000,0.114564
768.024479,0.025000,0.021651
768.058071,0.050000,0.090139
768.091663,-0.300000,0.061237
768.125255,0.150000,0.090139
768.158846,-0.025000,0.064952
768.192437,-0.450000,0.025000
768.226028,-0.225000,0.073951
768.259619,-0.075000,0.081968
768.293209,-0.100000,0.086603
768.326799,0.275000,0.155624
768.360389,-0.175000,0.113880
768.393979,0.025000,0.081968
768.427568,0.050000,0.163936
768.461158,-0.225000,0.041458
768.494747,-0.275000,0.041458
768.528335,0.000000,0.127475
768.561924,0.200000,0.035355
768.595512,0.025000,0.143069
768.629100,0.375000,0.151554
768.662688,-0.125000,0.054486
768.696275,-0.075000,0.081968
768.729862,0.175000,0.184983
768.763449,-0.050000,0.129904
768.797036,-0.225000,0.073951
768.830623,0.275000,0.184983
768.864209,0.125000,0.041458
768.897795,-0.050000,0.075000
768.931381,0.075000,0.054486
768.964966,-0.350000,0.055902
768.998551,0.000000,0.035355
769.032136,-0.175000,0.143069
769.065721,-0.025000,0.041458
769.099305,0.350000,0.160078
769.132890,-0.275000,0.113880
769.166474,0.225000,0.041458
769.200057,-0.200000,0.070711
769.233641,-0.175000,0.113880
769.267224,0.525000,0.191621
769.300807,-0.375000,0.041458
769.334390,-0.125000,0.102317
769.367972,0.150000,0.055902
769.401555,0.000000,0.061237
769.435137,-0.100000,0.183712
769.468718,0.000000,0.079057
769.502300,0.050000,0.075000
769.535881,-0.175000,0.073951
769.569462,-0.625000,0.064952
769.603043,-0.225000,0.021651
769.636623,0.150000,0.025000
769.670204,-0.225000,0.089268
769.703784,0.000000,0.035355
769.737364,-0.025000,0.041458
769.770943,0.500000,0.226385
769.804522,-0.075000,0.143069
769.838101,0.075000,0.397453
769.871680,-0.150000,0.134629
769.905259,-0.200000,0.154110
769.938837,0.025000,0.041458
769.972415,-0.050000,0.114564
770.005993,0.300000,0.276134
770.039570,0.025000,0.124373
770.073147,-0.050000,0.025000
770.106724,-0.075000,0.089268
770.140301,0.450000,0.055902
770.173878,0.375000,0.253414
770.207454,-0.050000,0.075000
770.241030,0.050000,0.043301
770.274606,0.050000,0.114564
770.308181,0.400000,0.237171
770.341757,0.075000,0.054486
770.375332,0.075000,0.089268
770.408906,0.225000,0.174553
770.442481,-0.225000,0.108253
770.476055,0.000000,0.145774
770.509629,0.300000,0.127475
770.543203,0.200000,0.150000
770.576776,0.250000,0.075000
770.610350,0.175000,0.102317
770.643923,0.425000,0.230149
770.677495,0.025000,0.064952
770.711068,0.100000,0.093541
770.744640,-0.075000,0.021651
770.778212,0.100000,0.061237
770.811784,-0.075000,0.073951
770.845356,-0.075000,0.064952
770.878927,0.350000,0.055902
770.912498,0.300000,0.196850
770.946069,-0.300000,0.079057
770.979639,0.175000,0.238157
771.013209,0.625000,0.221853
771.046779,-0.425000,0.108253
771.080349,-0.100000,0.079057
771.113919,-0.175000,0.096014
771.147488,-0.100000,0.061237
771.181057,-0.025000,0.021651
771.214626,0.250000,0.075000
771.248194,0.025000,0.054486
771.281762,-0.150000,0.025000
771.315330,-0.100000,0.050000
771.348898,0.150000,0.055902
771.382465,0.250000,0.326917
771.416033,0.050000,0.129904
771.449600,-0.050000,0.043301
771.483166,0.050000,0.103078
771.516733,0.125000,0.129301
771.550299,-0.000000,0.093541
771.583865,0.050000,0.025000
771.617431,-0.025000,0.041458
771.650996,0.200000,0.035355
771.684562,0.100000,0.183712
771.718127,0.050000,0.188746
771.751691,0.025000,0.064952
771.785256,-0.125000,0.194856
771.818820,-0.200000,0.000000
771.852384,0.100000,0.061237
771.885948,-0.250000,0.043301
771.919511,-0.175000,0.054486
771.953074,0.375000,0.188331
771.986637,0.100000,0.106066
772.020200,-0.075000,0.073951
772.053762,-0.025000,0.073951
772.087325,0.100000,0.093541
772.120887,-0.275000,0.041458
772.154448,0.450000,0.134629
772.188010,-0.075000,0.073951
772.221571,-0.100000,0.127475
772.255132,0.075000,0.124373
772.288692,-0.150000,0.129904
772.322253,-0.350000,0.147902
772.355813,-0.300000,0.093541
772.389373,0.225000,0.267804
772.422933,-0.000000,0.293684
772.456492,0.250000,0.108972
772.490051,0.075000,0.041458
772.523610,0.000000,0.000000
772.557169,-0.075000,0.113880
772.590727,-0.025000,0.073951
772.624285,0.050000,0.025000
772.657843,-0.050000,0.043301
772.691401,-0.275000,0.073951
772.724958,-0.075000,0.054486
772.758515,0.000000,0.035355
772.792072,0.000000,0.035355
772.825629,-0.275000,0.073951
772.859185,-0.050000,0.082916
772.892741,0.025000,0.147373
772.926297,0.150000,0.178536
772.959853,-0.075000,0.113880
772.993408,-0.425000,0.089268
773.026963,0.000000,0.079057
773.060518,-0.125000,0.054486
773.094073,-0.325000,0.021651
773.127627,0.500000,0.465027
773.161181,0.000000,0.079057
773.194735,-0.100000,0.050000
773.228289,0.075000,0.119242
773.261842,-0.025000,0.064952
773.295395,-0.175000,0.073951
773.328948,0.600000,0.093541
773.362500,0.175000,0.216145
773.396053,-0.250000,0.055902
773.429605,-0.075000,0.064952
773.463157,0.175000,0.138632
773.496708,0.250000,0.025000
773.530260,-0.375000,0.064952
773.563811,-0.200000,0.070711
773.597361,-0.075000,0.198037
773.630912,0.075000,0.041458
773.664462,0.125000,0.021651
773.698012,-0.100000,0.111803
773.731562,0.100000,0.145774
773.765111,0.100000,0.035355
773.798661,0.175000,0.041458
773.832210,0.075000,0.021651
773.865758,0.175000,0.041458
773.899307,-0.025000,0.021651
773.932855,0.100000,0.035355
773.966403,-0.025000,0.041458
773.999951,0.650000,0.332603
774.033498,0.000000,0.093541
774.067046,0.450000,0.216506
774.100593,0.225000,0.054486
774.134139,0.100000,0.061237
774.167686,0.300000,0.158114
774.201232,0.275000,0.163459
774.234778,0.525000,0.369755
774.268324,0.000000,0.061237
774.301869,0.100000,0.127475
774.335414,-0.025000,0.113880
774.368959,0.100000,0.093541
774.402504,0.450000,0.192029
774.436048,-0.275000,0.041458
774.469592,-0.050000,0.082916
774.503136,0.450000,0.279508
774.536680,0.025000,0.143069
774.570223,0.075000,0.021651
774.603766,0.275000,0.064952
774.637309,0.525000,0.232849
774.670852,0.075000,0.073951
774.704394,-0.050000,0.082916
774.737936,0.050000,0.251247
774.771478,-0.200000,0.061237
774.805020,-0.150000,0.090139
774.838561,0.125000,0.138632
774.872102,0.150000,0.075000
774.905643,0.525000,0.403694
774.939183,0.050000,0.114564
774.972724,-0.050000,0.025000
775.006264,-0.200000,0.035355
775.039804,0.525000,0.283670
775.073343,-0.425000,0.041458
775.106882,-0.250000,0.175000
775.140421,0.125000,0.113880
775.173960,-0.400000,0.079057
775.207499,-0.325000,0.064952
775.241037,0.150000,0.082916
775.274575,0.050000,0.090139
775.308113,-0.050000,0.043301
775.341650,0.325000,0.174553
775.375187,0.350000,0.275000
775.408724,-0.050000,0.213600
775.442261,-0.150000,0.025000
775.475798,-0.225000,0.054486
775.509334,0.025000,0.108253
775.542870,-0.175000,0.108253
775.576405,-0.175000,0.041458
775.609941,0.575000,0.304908
775.643476,-0.075000,0.041458
775.677011,-0.300000,0.106066
775.710546,0.200000,0.187083
775.744080,0.175000,0.096014
775.777614,0.150000,0.043301
775.811148,-0.075000,0.124373
775.844682,-0.275000,0.054486
775.878215,-0.100000,0.070711
775.911748,-0.200000,0.061237
775.945281,0.000000,0.050000
775.978814,-0.300000,0.061237
776.012346,-0.025000,0.113880
776.045878,-0.125000,0.054486
776.079410,0.175000,0.041458
776.112941,0.700000,0.351781
776.146473,0.050000,0.129904
776.180004,-0.075000,0.073951
776.213535,0.075000,0.096014
776.247065,-0.025000,0.096014
776.280595,0.000000,0.079057
776.314125,0.075000,0.054486
776.347655,-0.100000,0.061237
776.381185,-0.200000,0.117260
776.414714,0.275000,0.129301
776.448243,-0.150000,0.103078
776.481772,-0.175000,0.021651
776.515300,0.100000,0.061237
776.548828,0.050000,0.125000
776.582356,0.200000,0.237171
776.615884,-0.150000,0.025000
776.649411,0.275000,0.096014
776.682938,0.175000,0.073951
776.716465,0.575000,0.272431
776.749992,0.300000,0.269258
776.783518,-0.050000,0.043301
776.817044,0.025000,0.041458
776.850570,0.100000,0.061237
776.884096,0.475000,0.255869
776.917621,-0.275000,0.041458
776.951146,0.025000,0.041458
776.984671,-0.525000,0.096014
777.018196,-0.150000,0.114564
777.051720,0.225000,0.113880
777.085244,0.200000,0.070711
777.118768,-0.500000,0.035355
777.152292,0.100000,0.086603
777.185815,0.300000,0.122474
777.219338,-0.125000,0.064952
777.252861,-0.125000,0.096014
777.286383,-0.000000,0.106066
777.319905,0.200000,0.127475
777.353427,0.100000,0.079057
777.386949,0.475000,0.383039
777.420471,0.125000,0.096014
777.453992,0.075000,0.041458
777.487513,0.075000,0.073951
777.521033,-0.375000,0.041458
777.554554,-0.025000,0.181573
777.588074,0.150000,0.025000
777.621594,0.050000,0.055902
777.655114,0.100000,0.061237
777.688633,0.325000,0.108253
777.722152,-0.075000,0.054486
777.755671,0.025000,0.021651
777.789190,-0.225000,0.073951
777.822708,0.000000,0.061237
777.856226,-0.075000,0.096014
777.889744,0.125000,0.054486
777.923261,0.200000,0.173205
777.956779,0.050000,0.025000
777.990296,0.300000,0.093541
778.023812,0.025000,0.064952
778.057329,-0.175000,0.054486
778.090845,0.300000,0.150000
778.124361,0.175000,0.096014
778.157877,-0.100000,0.127475
778.191392,-0.025000,0.221853
778.224908,0.100000,0.061237
778.258423,-0.100000,0.079057
778.291937,-0.175000,0.054486
778.325452,-0.050000,0.055902
778.358966,-0.175000,0.108253
778.392480,-0.225000,0.064952
778.425993,-0.075000,0.021651
778.459507,0.000000,0.035355
778.493020,-0.050000,0.090139
778.526533,-0.100000,0.122474
778.560045,-0.275000,0.054486
778.593558,-0.150000,0.090139
778.627070,-0.275000,0.089268
778.660582,0.500000,0.158114
778.694093,-0.075000,0.081968
778.727605,-0.225000,0.041458
778.761116,0.000000,0.050000
778.794626,0.050000,0.055902
778.828137,-0.075000,0.054486
778.861647,-0.025000,0.041458
778.895157,0.575000,0.245904
778.928667,-0.200000,0.079057
778.962176,0.050000,0.075000
778.995686,0.150000,0.103078
779.029194,0.125000,0.119242
779.062703,0.100000,0.061237
779.096212,0.300000,0.203101
779.129720,0.050000,0.043301
779.163228,-0.250000,0.103078
779.196735,0.075000,0.041458
779.230243,-0.675000,0.041458
779.263750,-0.150000,0.075000
779.297257,0.000000,0.079057
779.330763,0.150000,0.258602
779.364269,0.000000,0.035355
779.397776,0.100000,0.035355
779.431281,0.075000,0.081968
779.464787,-0.025000,0.041458
779.498292,-0.100000,0.086603
779.531797,0.125000,0.089268
779.565302,-0.125000,0.089268
779.598806,0.050000,0.082916
779.632311,0.300000,0.079057
779.665814,0.200000,0.117260
779.699318,0.050000,0.082916
779.732822,0.225000,0.064952
779.766325,0.050000,0.043301
779.799828,0.000000,0.061237
779.833330,-0.075000,0.113880
779.866833,-0.250000,0.082916
779.900335,0.050000,0.043301
779.933837,0.250000,0.134629
779.967338,0.150000,0.055902
780.000840,-0.100000,0.061237
780.034341,-0.275000,0.096014
780.067841,0.000000,0.061237
780.101342,-0.100000,0.093541
780.134842,-0.100000,0.050000
780.168342,0.025000,0.138632
780.201842,0.225000,0.170935
780.235341,0.200000,0.035355
780.268841,0.150000,0.090139
780.302340,-0.025000,0.054486
780.335838,0.150000,0.167705
780.369337,0.025000,0.108253
780.402835,0.000000,0.100000
780.436333,0.025000,0.170935
780.469830,0.650000,0.332603
780.503328,0.000000,0.086603
780.536825,0.525000,0.201168
780.570322,0.100000,0.122474
780.603818,0.425000,0.263095
780.637315,-0.100000,0.079057
780.670811,-0.175000,0.089268
780.704306,-0.075000,0.081968
780.737802,0.125000,0.041458
780.771297,0.025000,0.064952
780.804792,0.125000,0.096014
780.838287,-0.050000,0.090139
780.871781,0.025000,0.138632
780.905276,-0.175000,0.159589
780.938770,-0.225000,0.163459
780.972263,-0.075000,0.041458
781.005757,0.400000,0.079057
781.039250,0.175000,0.064952
781.072743,0.050000,0.055902
781.106235,-0.125000,0.041458
781.139728,-0.225000,0.054486
781.173220,-0.075000,0.021651
781.206712,0.075000,0.064952
781.240203,0.000000,0.079057
781.273694,-0.050000,0.114564
781.307185,0.325000,0.253414
781.340676,-0.025000,0.108253
781.374167,0.000000,0.061237
781.407657,0.275000,0.163459
781.441147,-0.075000,0.021651
781.474636,-0.150000,0.055902
781.508126,-0.150000,0.043301
781.541615,0.100000,0.106066
781.575104,0.350000,0.270416
781.608593,0.200000,0.206155
781.642081,-0.225000,0.041458
781.675569,-0.200000,0.035355
781.709057,0.050000,0.075000
781.742544,0.275000,0.147373
781.776032,-0.375000,0.089268
781.809519,-0.050000,0.043301
781.843006,0.325000,0.138632
781.876492,0.025000,0.054486
781.909978,0.150000,0.025000
781.943464,0.250000,0.160078
781.976950,0.025000,0.108253
782.010435,0.000000,0.070711
782.043921,-0.025000,0.041458
782.077406,-0.075000,0.073951
782.110890,0.200000,0.127475
782.144375,-0.200000,0.079057
782.177859,0.175000,0.041458
782.211343,-0.250000,0.082916
782.244826,0.000000,0.035355
782.278309,0.200000,0.035355
782.311792,-0.125000,0.073951
782.345275,0.175000,0.267804
782.378758,0.350000,0.182003
782.412240,-0.225000,0.073951
782.445722,-0.050000,0.075000
782.479204,0.075000,0.064952
782.512685,-0.075000,0.089268
782.546166,-0.125000,0.064952
782.579647,-0.050000,0.055902
782.613128,-0.050000,0.103078
782.646608,0.475000,0.308980
782.680088,0.100000,0.127475
782.713568,-0.050000,0.043301
782.747048,0.175000,0.124373
782.780527,-0.375000,0.064952
782.814006,0.025000,0.041458
782.847485,-0.075000,0.108253
782.880963,-0.200000,0.061237
782.914442,-0.025000,0.041458
782.947920,-0.175000,0.129301
782.981397,0.000000,0.162019
783.014875,0.100000,0.035355
783.048352,0.100000,0.145774
783.081829,0.250000,0.192029
783.115306,0.050000,0.075000
783.148782,0.200000,0.237171
783.182258,-0.050000,0.055902
783.215734,0.225000,0.113880
783.249209,-0.225000,0.041458
783.282685,0.150000,0.134629
783.316160,-0.100000,0.070711
783.349635,0.025000,0.021651
783.383109,-0.475000,0.081968
783.416583,-0.225000,0.064952
783.450057,-0.075000,0.041458
783.483531,0.050000,0.195256
783.517004,0.075000,0.054486
783.550477,0.225000,0.108253
783.583950,0.175000,0.073951
783.617423,0.125000,0.041458
783.650895,0.175000,0.096014
783.684367,-0.025000,0.108253
783.717839,-0.750000,0.075000
783.751311,-0.125000,0.064952
783.784782,-0.050000,0.075000
783.818253,-0.100000,0.035355
783.851724,0.025000,0.073951
783.885194,0.125000,0.124373
783.918665,0.050000,0.134629
783.952134,0.025000,0.073951
783.985604,0.250000,0.082916
784.019074,0.450000,0.334477
784.052543,0.000000,0.079057
784.086012,-0.025000,0.041458
784.119480,-0.025000,0.021651
784.152948,0.050000,0.055902
784.186416,0.700000,0.247487
784.219884,0.300000,0.203101
784.253352,0.150000,0.043301
784.286819,-0.125000,0.178098
784.320286,0.000000,0.035355
784.353753,0.200000,0.262202
784.387219,0.250000,0.219374
784.420685,0.025000,0.064952
784.454151,0.575000,0.260708
784.487617,-0.200000,0.035355
784.521082,0.050000,0.082916
784.554547,0.200000,0.035355
784.588012,-0.100000,0.106066
784.621477,0.050000,0.055902
784.654941,0.000000,0.050000
784.688405,0.275000,0.073951
784.721869,0.200000,0.141421
784.755332,-0.050000,0.075000
784.788795,0.000000,0.070711
784.822258,0.025000,0.081968
784.855721,0.025000,0.054486
784.889183,0.500000,0.206155
784.922646,0.000000,0.136931
784.956107,0.050000,0.129904
784.989569,-0.200000,0.035355
785.023030,-0.125000,0.081968
785.056491,-0.150000,0.025000
785.089952,0.150000,0.246221
785.123413,-0.125000,0.041458
785.156873,-0.150000,0.075000
785.190333,0.075000,0.113880
785.223792,0.650000,0.389711
785.257252,0.000000,0.079057
785.290711,-0.150000,0.075000
785.324170,-0.175000,0.041458
785.357629,-0.050000,0.025000
785.391087,0.225000,0.113880
785.424545,-0.075000,0.054486
785.458003,-0.125000,0.073951
785.491460,0.125000,0.096014
785.524918,0.025000,0.041458
785.558375,0.075000,0.021651
785.591831,0.200000,0.117260
785.625288,0.000000,0.050000
785.658744,0.200000,0.145774
785.692200,-0.100000,0.061237
785.725655,0.375000,0.316968
785.759111,0.125000,0.054486
785.792566,0.050000,0.055902
785.826021,0.125000,0.054486
785.859475,-0.275000,0.064952
785.892930,0.000000,0.035355
785.926384,0.050000,0.108972
785.959837,0.125000,0.064952
785.993291,0.350000,0.108972
786.026744,0.900000,0.513566
786.060197,0.150000,0.160078
786.093649,-0.200000,0.061237
786.127102,-0.175000,0.041458
786.160554,0.100000,0.093541
786.194006,0.225000,0.224653
786.227457,-0.050000,0.075000
786.260909,0.125000,0.064952
786.294360,0.025000,0.041458
786.327810,-0.175000,0.064952
786.361261,0.050000,0.055902
786.394711,-0.200000,0.035355
786.428161,-0.050000,0.103078
786.461611,0.075000,0.151554
786.495060,0.250000,0.195256
786.528509,-0.100000,0.086603
786.561958,-0.050000,0.055902
786.595407,0.275000,0.201168
786.628855,0.175000,0.096014
786.662303,0.150000,0.108972
786.695751,0.100000,0.061237
786.729198,0.100000,0.183712
786.762645,0.150000,0.055902
786.796092,-0.125000,0.064952
786.829539,-0.150000,0.055902
786.862985,-0.125000,0.134048
786.896431,0.125000,0.167239
786.929877,0.075000,0.041458
786.963323,0.025000,0.064952
786.996768,0.200000,0.061237
787.030213,-0.125000,0.054486
787.063658,-0.175000,0.054486
787.097102,-0.025000,0.054486
787.130547,-0.500000,0.079057
787.163991,0.375000,0.389511
787.197434,-0.350000,0.043301
787.230878,0.000000,0.061237
787.264321,0.025000,0.064952
787.297764,-0.250000,0.082916
787.331206,0.100000,0.086603
787.364648,0.075000,0.021651
787.398090,0.250000,0.025000
787.431532,0.050000,0.055902
787.464974,0.025000,0.113880
787.498415,-0.325000,0.089268
787.531856,0.225000,0.143069
787.565296,-0.225000,0.124373
787.598737,0.850000,0.506828
787.632177,0.350000,0.134629
787.665617,-0.300000,0.061237
787.699056,0.150000,0.082916
787.732496,-0.200000,0.220794
787.765935,-0.100000,0.079057
787.799373,0.550000,0.227761
787.832812,0.425000,0.129301
787.866250,-0.175000,0.147373
787.899688,0.850000,0.268095
787.933126,0.275000,0.129301
787.966563,0.425000,0.221853
788.000000,0.125000,0.073951
788.033437,-0.050000,0.055902
788.066873,0.025000,0.054486
788.100310,0.050000,0.055902
788.133746,0.125000,0.108253
788.167181,0.000000,0.035355
788.200617,0.100000,0.035355
788.234052,0.050000,0.082916
788.267487,-0.200000,0.093541
788.300921,-0.100000,0.061237
788.334356,0.200000,0.079057
788.367790,0.050000,0.025000
788.401224,0.000000,0.050000
788.434657,-0.200000,0.061237
788.468090,0.050000,0.160078
788.501523,-0.050000,0.129904
788.534956,0.050000,0.075000
788.568389,-0.025000,0.064952
788.601821,0.050000,0.103078
788.635253,-0.025000,0.134048
788.668684,-0.050000,0.055902
788.702116,0.025000,0.147373
788.735547,-0.150000,0.082916
788.768977,0.000000,0.035355
788.802408,0.425000,0.272431
788.835838,-0.075000,0.113880
788.869268,0.175000,0.064952
788.902698,-0.125000,0.054486
788.936127,-0.025000,0.054486
788.969556,0.325000,0.178098
789.002985,0.150000,0.082916
789.036414,0.325000,0.204252
789.069842,0.175000,0.073951
789.103270,0.775000,0.279229
789.136698,-0.050000,0.082916
789.170125,0.075000,0.041458
789.203552,0.175000,0.021651
789.236979,0.350000,0.082916
789.270406,-0.150000,0.103078
789.303832,0.025000,0.089268
789.337258,-0.050000,0.134629
789.370684,-0.075000,0.054486
789.404110,0.050000,0.055902
789.437535,0.150000,0.055902
789.470960,0.225000,0.138632
789.504385,-0.025000,0.041458
789.537809,-0.075000,0.113880
789.571233,-0.250000,0.075000
789.604657,0.150000,0.075000
789.638081,0.325000,0.320887
789.671504,0.350000,0.160078
789.704927,0.475000,0.163459
789.738350,0.575000,0.332368
789.771772,0.650000,0.340037
789.805195,-0.075000,0.194856
789.838617,0.350000,0.279508
789.872038,0.000000,0.000000
789.905460,-0.775000,0.064952
789.938881,-0.050000,0.043301
789.972302,-0.075000,0.041458
790.005722,-0.100000,0.061237
790.039143,0.000000,0.093541
790.072563,0.000000,0.079057
790.105982,0.025000,0.041458
790.139402,0.125000,0.054486
790.172821,-0.275000,0.021651
790.206240,-0.025000,0.054486
790.239658,0.000000,0.079057
790.273077,0.125000,0.113880
790.306495,-0.175000,0.041458
790.339913,0.000000,0.035355
790.373330,-0.050000,0.114564
790.406747,-0.050000,0.108972
790.440164,-0.225000,0.054486
790.473581,0.325000,0.113880
790.506997,-0.050000,0.043301
790.540414,-0.100000,0.035355
790.573829,0.075000,0.041458
790.607245,0.400000,0.348210
790.640660,-0.325000,0.119242
790.674075,0.200000,0.111803
790.707490,-0.075000,0.108253
790.740904,0.025000,0.073951
790.774319,0.325000,0.347086
790.807733,0.175000,0.102317
790.841146,0.125000,0.089268
790.874560,-0.225000,0.134048
790.907973,0.000000,0.000000
790.941385,0.300000,0.203101
790.974798,-0.025000,0.064952
791.008210,0.075000,0.054486
791.041622,-0.075000,0.113880
791.075034,-0.025000,0.054486
791.108445,-0.075000,0.041458
791.141856,0.600000,0.297909
791.175267,0.025000,0.194856
791.208678,0.075000,0.064952
791.242088,0.050000,0.188746
791.275498,-0.100000,0.035355
791.308908,0.100000,0.035355
791.342317,0.450000,0.279508
791.375726,0.075000,0.124373
791.409135,0.125000,0.147373
791.442544,-0.400000,0.035355
791.475952,0.075000,0.041458
791.509360,0.300000,0.358818
791.542768,-0.025000,0.124373
791.576176,1.175000,0.322829
791.609583,2.200000,0.508675
791.642990,1.275000,0.174553
791.676396,1.075000,0.240767
791.709803,0.500000,0.308221
791.743209,0.450000,0.363146
791.776615,0.175000,0.216145
791.810020,0.025000,0.089268
791.843425,0.175000,0.119242
791.876830,-0.175000,0.258300
791.910235,-0.050000,0.055902
791.943640,-0.150000,0.055902
791.977044,-0.175000,0.041458
792.010448,-0.275000,0.054486
792.043851,-0.050000,0.055902
792.077254,0.175000,0.272431
792.110658,0.075000,0.064952
792.144060,-0.050000,0.055902
792.177463,-0.125000,0.054486
792.210865,-0.275000,0.073951
792.244267,0.125000,0.041458
792.277668,0.050000,0.103078
792.311070,-0.025000,0.089268
792.344471,0.225000,0.113880
792.377872,0.000000,0.061237
792.411272,0.075000,0.143069
792.444672,0.075000,0.108253
792.478072,0.350000,0.219374
792.511472,-0.150000,0.055902
792.544871,0.175000,0.041458
792.578271,-0.100000,0.093541
792.611669,-0.050000,0.075000
792.645068,-0.100000,0.061237
792.678466,-0.225000,0.096014
792.711864,-0.125000,0.081968
792.745262,-0.125000,0.064952
792.778659,0.175000,0.210283
792.812056,-0.200000,0.070711
792.845453,0.075000,0.064952
792.878850,-0.100000,0.035355
792.912246,0.125000,0.041458
792.945642,-0.000000,0.136931
792.979038,0.100000,0.079057
793.012433,0.500000,0.269258
793.045829,-0.075000,0.041458
793.079223,-0.225000,0.064952
793.112618,-0.050000,0.175000
793.146012,0.150000,0.082916
793.179406,-0.225000,0.129301
793.212800,-0.075000,0.124373
793.246194,0.125000,0.113880
793.279587,0.025000,0.041458
793.312980,0.025000,0.041458
793.346373,-0.200000,0.141421
793.379765,-0.200000,0.061237
793.413157,0.225000,0.073951
793.446549,0.750000,0.309233
793.479940,2.500000,0.634429
793.513332,1.450000,0.601560
793.546723,1.225000,0.440703
793.580113,1.550000,0.486698
793.613504,-0.275000,0.041458
793.646894,-0.075000,0.119242
793.680284,0.075000,0.096014
793.713673,0.075000,0.124373
793.747062,0.100000,0.035355
793.780451,0.200000,0.237171
793.813840,-0.100000,0.070711
793.847228,0.050000,0.055902
793.880617,0.100000,0.206155
793.914004,0.050000,0.075000
793.947392,-0.300000,0.061237
793.980779,-0.325000,0.064952
794.014166,-0.325000,0.073951
794.047553,0.100000,0.183712
794.080940,0.250000,0.075000
794.114326,-0.175000,0.054486
794.147712,-0.100000,0.035355
794.181097,-0.100000,0.035355
794.214483,0.050000,0.090139
794.247868,0.075000,0.054486
794.281252,-0.050000,0.075000
794.314637,-0.175000,0.188331
794.348021,-0.100000,0.079057
794.381405,0.325000,0.283670
794.414788,0.300000,0.173205
794.448172,0.200000,0.136931
794.481555,0.175000,0.213234
794.514938,0.100000,0.141421
794.548320,-0.150000,0.134629
794.581702,0.300000,0.375832
794.615084,0.200000,0.093541
794.648466,-0.075000,0.089268
794.681847,0.350000,0.235850
794.715228,0.275000,0.635782
794.748609,0.150000,0.261008
794.781990,-0.025000,0.412879
794.815370,0.175000,0.248433
794.848750,-0.200000,0.203101
794.882129,-0.075000,0.155624
794.915509,0.275000,0.178098
794.948888,-0.275000,0.081968
794.982267,-0.050000,0.082916
795.015645,-0.300000,0.035355
795.049023,-0.100000,0.035355
795.082401,-0.075000,0.124373
795.115779,0.025000,0.113880
795.149156,0.125000,0.143069
795.182534,0.375000,0.221853
795.215910,0.150000,0.103078
795.249287,0.375000,0.191621
795.282663,0.250000,0.075000
795.316039,1.175000,0.387903
795.349415,1.500000,0.106066
795.382790,2.125000,0.665559
795.416165,2.025000,0.756947
795.449540,0.550000,0.167705
795.482915,0.400000,0.234521
795.516289,0.250000,0.147902
795.549663,0.025000,0.113880
795.583037,0.050000,0.129904
795.616410,0.025000,0.064952
795.649783,-0.150000,0.103078
795.683156,-0.050000,0.163936
795.716529,0.050000,0.090139
795.749901,0.050000,0.227761
795.783273,0.175000,0.213234
795.816645,-0.200000,0.093541
795.850016,-0.050000,0.043301
795.883387,0.075000,0.064952
795.916758,-0.025000,0.073951
795.950129,-0.300000,0.061237
795.983499,-0.150000,0.055902
796.016869,0.050000,0.195256
796.050239,-0.475000,0.021651
796.083608,0.025000,0.041458
796.116977,-0.100000,0.035355
796.150346,-0.475000,0.081968
796.183714,-0.150000,0.075000
796.217083,0.225000,0.041458
796.250451,-0.325000,0.089268
796.283818,0.100000,0.061237
796.317186,0.050000,0.143614
796.350553,-0.050000,0.055902
796.383920,0.325000,0.429207
796.417286,0.125000,0.041458
796.450653,-0.125000,0.089268
796.484019,0.075000,0.081968
796.517384,0.000000,0.061237
796.550750,-0.100000,0.093541
796.584115,0.175000,0.155624
796.617480,-0.175000,0.073951
796.650844,0.050000,0.134629
796.684209,-0.175000,0.021651
796.717573,-0.075000,0.081968
796.750936,0.325000,0.073951
796.784300,0.125000,0.113880
796.817663,-0.025000,0.089268
796.851026,0.100000,0.145774
796.884388,-0.375000,0.064952
796.917751,0.125000,0.129301
796.951113,-0.075000,0.138632
796.984474,0.025000,0.155624
797.017836,0.050000,0.090139
797.051197,-0.050000,0.075000
797.084558,-0.175000,0.041458
797.117918,0.275000,0.108253
797.151279,0.175000,0.102317
797.184639,0.650000,0.143614
797.217998,1.425000,0.504201
797.251358,2.100000,0.709753
797.284717,2.150000,0.384870
797.318076,2.650000,0.527376
797.351434,0.575000,0.439282
797.384793,0.150000,0.147902
797.418151,0.075000,0.064952
797.451508,0.125000,0.041458
797.484866,0.075000,0.041458
797.518223,0.075000,0.054486
797.551580,-0.100000,0.093541
797.584936,-0.100000,0.035355
797.618292,-0.225000,0.163459
797.651648,-0.175000,0.073951
797.685004,-0.150000,0.075000
797.718360,0.175000,0.081968
797.751715,0.175000,0.194856
797.785069,-0.000000,0.093541
797.818424,-0.100000,0.061237
797.851778,-0.075000,0.096014
797.885132,-0.150000,0.192029
797.918486,-0.075000,0.041458
797.951839,0.100000,0.079057
797.985192,-0.050000,0.043301
798.018545,0.225000,0.081968
798.051898,0.050000,0.025000
798.085250,0.000000,0.035355
798.118602,-0.075000,0.143069
798.151954,-0.225000,0.064952
798.185305,-0.000000,0.217945
798.218656,0.125000,0.041458
798.252007,0.450000,0.108972
798.285357,0.175000,0.064952
798.318708,-0.075000,0.021651
798.352057,0.025000,0.073951
798.385407,0.050000,0.075000
798.418756,-0.125000,0.041458
798.452106,0.050000,0.025000
798.485454,0.225000,0.310996
798.518803,0.125000,0.041458
798.552151,-0.225000,0.041458
798.585499,0.025000,0.021651
798.618847,-0.025000,0.163459
798.652194,-0.100000,0.035355
798.685541,0.225000,0.124373
798.718888,0.300000,0.086603
798.752234,-0.050000,0.055902
798.785580,0.250000,0.108972
798.818926,-0.100000,0.127475
798.852272,-0.125000,0.041458
798.885617,-0.375000,0.073951
798.918962,0.075000,0.178098
798.952307,-0.050000,0.043301
798.985651,0.375000,0.113880
799.018996,0.125000,0.248433
799.052339,0.375000,0.337963
799.085683,0.775000,0.263095
799.119026,1.475000,0.386288
799.152369,2.225000,0.639702
799.185712,3.150000,0.768521
799.219054,2.300000,0.289396
799.252397,0.900000,0.324037
799.285738,1.125000,0.501716
799.319080,-0.225000,0.096014
799.352421,0.275000,0.096014
799.385762,0.225000,0.064952
799.419103,-0.050000,0.134629
799.452443,0.000000,0.050000
799.485783,0.150000,0.178536
799.519123,-0.075000,0.054486
799.552463,0.150000,0.147902
799.585802,0.075000,0.073951
799.619141,-0.150000,0.075000
799.652480,-0.025000,0.194856
799.685818,-0.125000,0.064952
799.719156,0.050000,0.082916
799.752494,0.125000,0.096014
799.785831,0.100000,0.093541
799.819169,-0.025000,0.064952
799.852506,-0.025000,0.073951
799.885842,-0.125000,0.021651
799.919179,-0.150000,0.025000
799.952515,-0.125000,0.041458
799.985850,-0.175000,0.073951
800.019186,-0.075000,0.073951
800.052521,0.275000,0.240767
800.085856,-0.150000,0.160078
800.119191,0.125000,0.096014
800.152525,-0.025000,0.041458
800.185859,0.000000,0.061237
800.219193,0.075000,0.041458
800.252526,0.125000,0.041458
800.285859,0.450000,0.188746
800.319192,-0.075000,0.073951
800.352525,-0.025000,0.041458
800.385857,0.250000,0.251247
800.419189,0.375000,0.102317
800.452521,0.175000,0.054486
800.485852,0.350000,0.075000
800.519183,0.000000,0.247487
800.552514,-0.025000,0.219018
800.585844,-0.750000,0.251247
800.619175,0.100000,0.061237
800.652505,0.200000,0.136931
800.685834,0.050000,0.075000
800.719164,-0.075000,0.073951
800.752493,0.100000,0.061237
800.785821,0.175000,0.021651
800.819150,-0.250000,0.082916
800.852478,-0.025000,0.021651
800.885806,-0.000000,0.079057
800.919134,0.250000,0.219374
800.952461,0.050000,0.082916
800.985788,0.500000,0.196850
801.019115,1.375000,0.383039
801.052441,3.125000,0.194856
801.085767,5.375000,0.326678
801.119093,5.500000,0.582022
801.152419,1.866667,0.142887
801.185744,1.025000,0.548150
801.219069,-0.200000,0.035355
801.252394,0.125000,0.081968
801.285718,-0.150000,0.075000
801.319042,0.050000,0.108972
801.352366,-0.125000,0.167239
801.385690,0.250000,0.134629
801.419013,-0.825000,0.054486
801.452336,-0.500000,0.158114
801.485658,-0.525000,0.300780
801.518981,0.675000,0.320887
801.552303,0.225000,0.073951
801.585625,-0.000000,0.086603
801.618946,0.075000,0.213234
801.652267,-0.175000,0.108253
801.685588,0.100000,0.117260
801.718909,0.025000,0.041458
801.752229,0.075000,0.064952
801.785549,-0.050000,0.129904
801.818869,0.025000,0.041458
801.852188,-0.150000,0.147902
801.885507,0.075000,0.041458
801.918826,0.175000,0.064952
801.952145,-0.200000,0.086603
801.985463,-0.225000,0.096014
802.018781,0.150000,0.055902
802.052099,-0.050000,0.108972
802.085416,0.325000,0.324760
802.118733,0.200000,0.050000
802.152050,0.000000,0.061237
802.185366,-0.225000,0.054486
802.218683,-0.100000,0.079057
802.251999,0.225000,0.167239
802.285314,-0.475000,0.167239
802.318630,0.175000,0.064952
802.351945,-0.125000,0.129301
802.385259,0.175000,0.081968
802.418574,0.100000,0.061237
802.451888,0.250000,0.090139
802.485202,0.100000,0.229129
802.518515,-0.150000,0.090139
802.551829,-0.000000,0.093541
802.585142,0.325000,0.081968
802.618454,-0.025000,0.021651
802.651767,0.275000,0.270127
802.685079,-0.675000,0.113880
802.718391,-0.050000,0.025000
802.751702,-0.025000,0.041458
802.785013,0.025000,0.054486
802.818324,0.000000,0.061237
802.851635,0.300000,0.231840
802.884945,-0.475000,0.021651
802.918255,1.050000,0.207666
802.951565,3.266667,0.194722
802.984874,4.825000,0.255869
803.018184,5.850000,0.427931
803.051492,6.800000,0.890926
803.084801,2.425000,0.258300
803.118109,0.675000,0.054486
803.151417,-0.425000,0.073951
803.184725,0.250000,0.055902
803.218032,0.175000,0.073951
803.251339,0.000000,0.061237
803.284646,0.100000,0.035355
803.317953,0.100000,0.086603
803.351259,-0.475000,0.021651
803.384565,-0.250000,0.082916
803.417870,0.250000,0.114564
803.451176,0.125000,0.081968
803.484481,-0.075000,0.041458
803.517786,0.275000,0.155624
803.551090,-0.025000,0.021651
803.584394,0.000000,0.061237
803.617698,-0.175000,0.064952
803.651002,0.025000,0.064952
803.684305,-0.275000,0.064952
803.717608,-0.100000,0.035355
803.750910,-0.375000,0.041458
803.784213,0.100000,0.000000
803.817515,0.375000,0.134048
803.850817,-0.425000,0.054486
803.884118,0.075000,0.041458
803.917419,0.250000,0.075000
803.950720,0.075000,0.073951
803.984021,0.075000,0.181573
804.017321,0.100000,0.106066
804.050621,-0.175000,0.041458
804.083921,0.000000,0.136931
804.117220,-0.200000,0.061237
804.150519,-0.025000,0.054486
804.183818,0.300000,0.111803
804.217117,-0.225000,0.054486
804.250415,0.200000,0.252488
804.283713,0.250000,0.241091
804.317011,0.200000,0.145774
804.350308,-0.025000,0.073951
804.383605,0.050000,0.025000
804.416902,0.250000,0.114564
804.450198,0.100000,0.061237
804.483494,0.500000,0.382426
804.516790,0.050000,0.082916
804.550086,0.025000,0.191621
804.583381,-0.275000,0.096014
804.616676,0.025000,0.054486
804.649971,0.000000,0.061237
804.683265,-0.100000,0.117260
804.716559,-0.450000,0.114564
804.749853,-0.175000,0.054486
804.783146,-0.375000,0.041458
804.816440,0.000000,0.165831
804.849732,1.075000,0.089268
804.883025,2.625000,0.334244
804.916317,7.300000,0.897218
804.949609,8.550000,0.396074
804.982901,5.700000,0.324037
805.016192,1.575000,0.201168
805.049484,0.400000,0.187083
805.082774,-0.475000,0.041458
805.116065,0.200000,0.061237
805.149355,-0.200000,0.079057
805.182645,-0.025000,0.054486
805.215935,0.375000,0.124373
805.249224,0.625000,0.395877
805.282513,0.075000,0.064952
805.315802,0.525000,0.102317
805.349090,0.300000,0.127475
805.382378,-0.100000,0.035355
805.415666,0.000000,0.061237
805.448954,0.200000,0.000000
805.482241,-0.125000,0.089268
805.515528,-0.125000,0.073951
805.548815,0.525000,0.426285
805.582101,0.050000,0.043301
805.615387,0.025000,0.041458
805.648673,-0.075000,0.064952
805.681958,-0.325000,0.041458
805.715243,0.525000,0.373120
805.748528,0.025000,0.102317
805.781813,-0.425000,0.064952
805.815097,0.125000,0.108253
805.848381,-0.575000,0.054486
805.881665,-0.075000,0.300780
805.914948,0.100000,0.150000
805.948231,-0.075000,0.174553
805.981514,-0.050000,0.114564
806.014796,0.150000,0.055902
806.048079,0.375000,0.096014
806.081360,-0.125000,0.151554
806.114642,-0.075000,0.041458
806.147923,0.125000,0.151554
806.181204,0.250000,0.160078
806.214485,-0.250000,0.235850
806.247765,-0.050000,0.075000
806.281046,0.425000,0.113880
806.314325,0.450000,0.268095
806.347605,0.325000,0.155624
806.380884,-0.475000,0.041458
806.414163,-0.125000,0.064952
806.447441,0.050000,0.125000
806.480720,0.125000,0.155624
806.513998,0.075000,0.073951
806.547275,0.200000,0.111803
806.580553,0.100000,0.150000
806.613830,-0.075000,0.096014
806.647107,-0.150000,0.043301
806.680383,0.025000,0.081968
806.713659,-0.125000,0.089268
806.746935,-0.475000,0.054486
806.780211,1.250000,0.349106
806.813486,4.100000,0.289396
806.846761,9.075000,1.275919
806.880036,12.250000,0.683283
806.913310,9.266667,0.304822
806.946584,2.125000,0.263095
806.979858,0.600000,0.382426
807.013132,0.200000,0.187083
807.046405,-0.050000,0.043301
807.079678,0.425000,0.201168
807.112951,0.125000,0.124373
807.146223,-0.250000,0.090139
807.179495,0.275000,0.332368
807.212767,-0.575000,0.124373
807.246038,0.050000,0.175000
807.279309,0.000000,0.122474
807.312580,-0.150000,0.025000
807.345850,0.000000,0.262202
807.379121,-0.150000,0.163936
807.412390,0.075000,0.073951
807.445660,-0.025000,0.041458
807.478929,0.000000,0.127475
807.512198,0.125000,0.041458
807.545467,-0.025000,0.181573
807.578735,-0.075000,0.073951
807.612004,-0.800000,0.000000
807.645271,-0.225000,0.073951
807.678539,-0.450000,0.075000
807.711806,0.025000,0.064952
807.745073,-0.300000,0.000000
807.778340,0.125000,0.354216
807.811606,0.025000,0.054486
807.844872,0.100000,0.145774
807.878138,0.025000,0.143069
807.911403,-0.425000,0.081968
807.944668,0.125000,0.089268
807.977933,-0.125000,0.134048
808.011197,-0.075000,0.064952
808.044462,0.050000,0.055902
808.077725,0.000000,0.154110
808.110989,0.000000,0.079057
808.144252,0.250000,0.025000
808.177515,0.300000,0.183712
808.210778,-0.150000,0.103078
808.244040,-0.025000,0.108253
808.277302,-0.325000,0.041458
808.310564,0.075000,0.184983
808.343826,0.475000,0.081968
808.377087,0.000000,0.141421
808.410348,0.350000,0.248747
808.443608,0.100000,0.079057
808.476869,0.250000,0.075000
808.510129,-0.250000,0.219374
808.543388,-0.025000,0.021651
808.576648,0.150000,0.108972
808.609907,-0.225000,0.089268
808.643165,-0.350000,0.108972
808.676424,-0.225000,0.054486
808.709682,-0.450000,0.147902
808.742940,2.375000,0.495448
808.776197,6.525000,0.505439
808.809455,11.250000,0.477624
808.842712,13.225000,1.052007
808.875968,10.150000,0.628987
808.909225,1.300000,0.353553
808.942481,0.075000,0.147373
808.975736,-0.025000,0.267804
809.008992,-0.150000,0.108972
809.042247,0.375000,0.272431
809.075502,-0.025000,0.267804
809.108756,-0.650000,0.305164
809.142011,0.175000,0.221853
809.175265,-0.225000,0.054486
809.208518,0.225000,0.089268
809.241772,0.350000,0.510514
809.275025,-0.125000,0.064952
809.308277,0.025000,0.143069
809.341530,0.675000,0.374792
809.374782,0.175000,0.163459
809.408034,0.450000,0.082916
809.441285,-0.475000,0.081968
809.474536,-0.375000,0.292350
809.507787,-0.325000,0.064952
809.541038,0.225000,0.213234
809.574288,-0.250000,0.152069
809.607538,-0.325000,0.054486
809.640788,0.225000,0.194856
809.674037,0.225000,0.155624
809.707286,-0.025000,0.240767
809.740535,0.150000,0.114564
809.773783,0.100000,0.061237
809.807032,-0.375000,0.054486
809.840279,-0.600000,0.035355
809.873527,-0.350000,0.167705
809.906774,-0.125000,0.054486
809.940021,0.250000,0.261008
809.973268,0.250000,0.303109
810.006514,-0.025000,0.245904
810.039760,-0.175000,0.073951
810.073006,0.125000,0.201168
810.106251,-0.175000,0.064952
810.139497,0.025000,0.054486
810.172741,0.025000,0.041458
810.205986,-0.050000,0.025000
810.239230,-0.300000,0.266927
810.272474,0.300000,0.079057
810.305718,0.325000,0.041458
810.338961,-0.050000,0.515388
810.372204,-0.025000,0.384667
810.405447,-0.475000,0.143069
810.438689,0.075000,0.134048
810.471931,-0.575000,0.041458
810.505173,0.650000,0.477624
810.538414,0.050000,0.305164
810.571656,-0.375000,0.119242
810.604897,0.250000,0.296859
810.638137,-1.025000,0.081968
810.671377,0.175000,0.167239
810.704617,2.900000,0.686477
810.737857,7.666667,0.624833
810.771096,18.350000,1.449353
810.804335,19.300000,0.943398
810.837574,11.050000,0.384870
810.870813,3.000000,0.697316
810.904051,0.025000,0.138632
810.937288,0.100000,0.086603
810.970526,0.500000,0.497494
811.003763,-0.175000,0.227418
811.037000,-0.400000,0.093541
811.070237,-0.275000,0.108253
811.103473,-0.050000,0.207666
811.136709,-0.325000,0.184983
811.169945,-0.575000,0.138632
811.203180,-0.075000,0.073951
811.236415,0.125000,0.204252
811.269650,0.050000,0.143614
811.302884,-0.275000,0.113880
811.336119,0.150000,0.508060
811.369352,-0.400000,0.035355
811.402586,0.300000,0.551135
811.435819,-0.650000,0.376663
811.469052,0.625000,0.893291
811.502285,-2.875000,0.765976
811.535517,-0.800000,0.933408
811.568749,0.875000,1.433691
811.601981,1.133333,0.357654
811.635212,0.175000,0.434993
811.668443,0.050000,0.277263
811.701674,0.325000,0.147373
811.734905,-0.600000,0.035355
811.768135,-0.200000,0.061237
811.801365,-0.200000,0.093541
811.834594,-0.300000,0.061237
811.867824,-0.475000,0.163459
811.901053,-0.550000,0.129904
811.934281,-0.500000,0.106066
811.967510,-0.325000,0.041458
812.000738,-0.350000,0.055902
812.033965,-0.175000,0.021651
812.067193,-0.150000,0.167705
812.100420,0.425000,0.108253
812.133647,-0.400000,0.150000
812.166873,-1.250000,0.108972
812.200099,-0.100000,0.035355
812.233325,0.100000,0.377492
812.266551,-0.225000,0.073951
812.299776,-0.125000,0.041458
812.333001,0.300000,0.145774
812.366226,-0.025000,0.102317
812.399450,0.050000,0.219374
812.432674,-0.250000,0.043301
812.465898,-0.750000,0.043301
812.499121,0.125000,0.129301
812.532345,-0.075000,0.041458
812.565567,0.275000,0.151554
812.598790,-0.075000,0.021651
812.632012,-0.150000,0.082916
812.665234,0.500000,0.061237
812.698456,2.700000,0.652878
812.731677,4.325000,0.566100
812.764898,5.175000,0.458769
812.798119,3.475000,0.636764
812.831339,0.700000,0.259808
812.864559,0.100000,0.035355
812.897779,0.125000,0.054486
812.930998,0.175000,0.073951
812.964217,0.175000,0.155624
812.997436,-0.225000,0.054486
813.030655,-0.025000,0.054486
813.063873,-0.125000,0.041458
813.097091,0.025000,0.124373
813.130308,-0.225000,0.155624
813.163526,0.050000,0.082916
813.196743,-0.200000,0.050000
813.229959,0.100000,0.061237
813.263176,0.000000,0.035355
813.296392,-0.250000,0.090139
813.329607,-0.075000,0.041458
813.362823,-0.175000,0.089268
813.396038,-0.050000,0.055902
813.429253,-0.025000,0.102317
813.462467,-0.400000,0.035355
813.495682,-0.150000,0.055902
813.528895,0.200000,0.183712
813.562109,0.100000,0.035355
813.595322,-0.150000,0.055902
813.628535,-0.075000,0.041458
813.661748,0.000000,0.035355
813.694960,0.125000,0.138632
813.728172,0.175000,0.210283
813.761384,-0.175000,0.021651
813.794596,-0.525000,0.064952
813.827807,-0.325000,0.129301
813.861017,-0.275000,0.041458
813.894228,0.025000,0.113880
813.927438,0.225000,0.054486
813.960648,0.225000,0.021651
813.993858,0.000000,0.106066
814.027067,0.000000,0.035355
814.060276,-0.225000,0.041458
814.093485,-0.075000,0.073951
814.126693,-0.025000,0.194856
814.159901,-0.175000,0.064952
814.193109,-0.425000,0.064952
814.226316,0.275000,0.134048
814.259523,-0.025000,0.108253
814.292730,-0.100000,0.070711
814.325936,0.050000,0.055902
814.359143,-0.000000,0.086603
814.392348,0.100000,0.176777
814.425554,-0.025000,0.181573
814.458759,-0.150000,0.055902
814.491964,-0.000000,0.187083
814.525169,0.100000,0.093541
814.558373,-0.200000,0.086603
814.591577,-0.075000,0.147373
814.624781,-0.050000,0.025000
814.657984,0.025000,0.041458
