#{
#    "background_file": "Backgrounds\\\\bg_787.999nm_16bin_197st_244en_10.0s_110g_4x_1_seq.txt",
#    "ccd_image_settings": [
#        1,
#        16,
#        1,
#        1600,
#        197,
#        244
#    ],
#    "ccd_temperature": "-88",
#    "cdRatios": {
#        "mean": 0.9337472551763888,
#        "std": 0.006286888786782683
#    },
#    "center_lambda": 788.0,
#    "comments": "",
#    "dark_region": 0.2678860011529443,
#    "date": "11/17/19 13:49:36PM",
#    "eff_field": 1.5,
#    "exposure": 10.0,
#    "fel_lambda": "15.0",
#    "fel_pol": "H",
#    "fel_pulses": 40,
#    "fel_pyro_cal": "0.017",
#    "fel_reprate": "1.07",
#    "fel_transmission": "1.0",
#    "fel_transmission_fits": {
#        "A": 1.0,
#        "C": 0.0,
#        "Mu": 0.0
#    },
#    "fieldInt": {
#        "mean": 9142.859136363637,
#        "std": 484.9135296803396
#    },
#    "fieldStrength": {
#        "mean": 43.85340909090909,
#        "std": 1.1698446938253408
#    },
#    "fpTime": {
#        "mean": 1.0903483984635263,
#        "std": 0.0694728880782346
#    },
#    "gain": 110,
#    "grating": 3,
#    "images_in_sequence": [
#        "hsg_SpotD_crystal16_a90_HAna13.txt",
#        "hsg_SpotD_crystal16_a90_HAna14.txt",
#        "hsg_SpotD_crystal16_a90_HAna15.txt",
#        "hsg_SpotD_crystal16_a90_HAna16.txt"
#    ],
#    "nir_lambda": "820.9918",
#    "nir_pola": "90",
#    "nir_polg": "0",
#    "nir_power": "100.0",
#    "pulseEnergies": {
#        "mean": 1.9646136363636364,
#        "std": 0.11529848397824993
#    },
#    "pyroVoltage": {
#        "mean": 0.12382976040580072,
#        "std": 0.007990931766030239
#    },
#    "rotatorAngle": 45.0,
#    "sample_Temp": "58",
#    "sample_name": "L001218.C3",
#    "series": "SpotD_16_90",
#    "slits": "60",
#    "spec_step": "",
#    "window_trans": 0.92,
#    "y_max": 2,
#    "y_min": 1
#}
#
#
#
#
#
#
#
#
#
#
#
#
#
#
#
#
#
#
#
#
#
#
#
#
#
#
Wavelength,Signal,error
nm,arb. u.,arb.u.
Wavelength,SpotD_16_90,error
761.200217,-0.150000,0.125000
761.233859,0.025000,0.073951
761.267500,0.450000,0.265754
761.301141,0.275000,0.368061
761.334781,0.250000,0.195256
761.368422,-0.075000,0.147373
761.402062,0.275000,0.159589
761.435702,-0.300000,0.061237
761.469342,-0.100000,0.117260
761.502981,0.100000,0.162019
761.536620,0.000000,0.183712
761.570259,-0.000000,0.215058
761.603898,-0.175000,0.073951
761.637537,0.050000,0.129904
761.671175,-0.250000,0.043301
761.704813,0.225000,0.198037
761.738451,0.075000,0.089268
761.772088,-0.025000,0.096014
761.805726,-0.225000,0.129301
761.839363,-0.100000,0.035355
761.873000,-0.300000,0.050000
761.906636,0.050000,0.075000
761.940273,0.075000,0.108253
761.973909,-0.025000,0.041458
762.007545,0.075000,0.096014
762.041180,-0.175000,0.230149
762.074816,-0.050000,0.075000
762.108451,0.025000,0.073951
762.142086,0.050000,0.090139
762.175720,0.050000,0.043301
762.209355,-0.100000,0.136931
762.242989,0.100000,0.035355
762.276623,0.000000,0.035355
762.310257,0.025000,0.041458
762.343890,0.025000,0.163459
762.377524,-0.200000,0.035355
762.411157,-0.075000,0.073951
762.444789,0.000000,0.111803
762.478422,0.175000,0.089268
762.512054,0.100000,0.035355
762.545686,0.125000,0.108253
762.579318,0.150000,0.163936
762.612950,-0.075000,0.102317
762.646581,-0.200000,0.070711
762.680212,0.175000,0.108253
762.713843,0.100000,0.093541
762.747474,0.175000,0.134048
762.781104,0.175000,0.163459
762.814734,-0.450000,0.025000
762.848364,-0.075000,0.163459
762.881994,-0.075000,0.021651
762.915623,0.150000,0.147902
762.949252,-0.075000,0.089268
762.982881,0.125000,0.108253
763.016510,0.075000,0.041458
763.050139,0.250000,0.175000
763.083767,0.100000,0.061237
763.117395,-0.125000,0.054486
763.151023,0.175000,0.073951
763.184650,0.450000,0.275000
763.218277,-0.150000,0.167705
763.251904,-0.100000,0.150000
763.285531,-0.025000,0.041458
763.319158,0.325000,0.096014
763.352784,-0.100000,0.061237
763.386410,0.825000,0.456036
763.420036,0.800000,0.392110
763.453661,0.850000,0.419076
763.487287,0.425000,0.294480
763.520912,-0.400000,0.357071
763.554537,0.725000,0.439282
763.588161,0.150000,0.296859
763.621786,0.125000,0.313000
763.655410,0.100000,0.061237
763.689034,-0.200000,0.079057
763.722657,-0.100000,0.093541
763.756281,0.025000,0.064952
763.789904,-0.125000,0.054486
763.823527,-0.025000,0.096014
763.857150,0.125000,0.134048
763.890772,-0.025000,0.143069
763.924394,0.325000,0.119242
763.958016,-0.025000,0.096014
763.991638,0.075000,0.064952
764.025260,-0.100000,0.079057
764.058881,0.150000,0.125000
764.092502,-0.250000,0.129904
764.126123,0.325000,0.119242
764.159743,0.125000,0.198037
764.193363,0.025000,0.064952
764.226983,0.225000,0.198037
764.260603,0.375000,0.188331
764.294223,-0.150000,0.103078
764.327842,0.025000,0.096014
764.361461,-0.025000,0.041458
764.395080,-0.100000,0.093541
764.428699,0.075000,0.188331
764.462317,0.000000,0.079057
764.495935,-0.275000,0.138632
764.529553,-0.125000,0.021651
764.563170,0.100000,0.061237
764.596788,0.500000,0.215058
764.630405,-0.075000,0.181573
764.664022,-0.200000,0.093541
764.697638,0.325000,0.138632
764.731255,0.375000,0.230149
764.764871,-0.050000,0.090139
764.798487,-0.050000,0.167705
764.832103,-0.125000,0.064952
764.865718,0.000000,0.093541
764.899333,-0.075000,0.041458
764.932948,-0.100000,0.176777
764.966563,-0.175000,0.041458
765.000177,0.075000,0.054486
765.033792,-0.125000,0.096014
765.067406,0.175000,0.064952
765.101019,-0.075000,0.041458
765.134633,-0.300000,0.127475
765.168246,0.050000,0.082916
765.201859,0.250000,0.195256
765.235472,0.150000,0.129904
765.269084,0.100000,0.165831
765.302697,-0.225000,0.073951
765.336309,-0.075000,0.089268
765.369920,0.150000,0.147902
765.403532,-0.150000,0.082916
765.437143,0.025000,0.167239
765.470754,0.575000,0.238157
765.504365,0.025000,0.054486
765.537976,0.125000,0.089268
765.571586,0.050000,0.114564
765.605196,-0.225000,0.124373
765.638806,0.175000,0.096014
765.672416,-0.025000,0.113880
765.706025,-0.050000,0.055902
765.739634,-0.050000,0.055902
765.773243,0.275000,0.181573
765.806851,-0.050000,0.075000
765.840460,0.000000,0.050000
765.874068,0.075000,0.096014
765.907676,-0.175000,0.124373
765.941284,-0.125000,0.096014
765.974891,0.400000,0.297909
766.008498,-0.025000,0.102317
766.042105,0.050000,0.075000
766.075712,-0.350000,0.055902
766.109318,-0.100000,0.215058
766.142924,-0.025000,0.054486
766.176530,-0.725000,0.021651
766.210136,-0.225000,0.102317
766.243741,0.225000,0.188331
766.277347,-0.225000,0.113880
766.310951,-0.125000,0.073951
766.344556,0.000000,0.061237
766.378161,0.425000,0.230149
766.411765,-0.200000,0.070711
766.445369,-0.050000,0.114564
766.478973,-0.075000,0.054486
766.512576,0.075000,0.102317
766.546179,-0.050000,0.114564
766.579782,0.150000,0.082916
766.613385,0.150000,0.025000
766.646988,-0.025000,0.119242
766.680590,0.200000,0.093541
766.714192,0.400000,0.237171
766.747794,0.150000,0.114564
766.781395,0.350000,0.082916
766.814996,-0.425000,0.096014
766.848597,-0.225000,0.054486
766.882198,0.225000,0.265460
766.915799,0.150000,0.108972
766.949399,0.000000,0.050000
766.982999,0.025000,0.089268
767.016599,-0.200000,0.070711
767.050198,0.025000,0.108253
767.083798,0.150000,0.055902
767.117397,-0.050000,0.114564
767.150996,0.050000,0.152069
767.184594,-0.500000,0.035355
767.218193,0.025000,0.143069
767.251791,-0.150000,0.055902
767.285389,-0.225000,0.081968
767.318986,0.375000,0.178098
767.352583,0.250000,0.134629
767.386181,-0.200000,0.050000
767.419777,-0.150000,0.160078
767.453374,0.525000,0.339807
767.486970,-0.375000,0.021651
767.520567,0.375000,0.102317
767.554162,-0.050000,0.160078
767.587758,0.100000,0.100000
767.621353,0.450000,0.114564
767.654949,-0.025000,0.021651
767.688543,0.300000,0.093541
767.722138,0.500000,0.127475
767.755732,0.425000,0.155624
767.789327,-0.175000,0.096014
767.822921,-0.300000,0.079057
767.856514,-0.250000,0.103078
767.890108,0.025000,0.064952
767.923701,-0.175000,0.073951
767.957294,-0.025000,0.021651
767.990886,0.000000,0.070711
768.024479,-0.025000,0.155624
768.058071,0.075000,0.096014
768.091663,-0.300000,0.050000
768.125255,-0.125000,0.041458
768.158846,0.100000,0.079057
768.192437,-0.575000,0.064952
768.226028,-0.125000,0.073951
768.259619,-0.050000,0.075000
768.293209,-0.075000,0.054486
768.326799,0.150000,0.090139
768.360389,0.025000,0.081968
768.393979,-0.075000,0.073951
768.427568,0.100000,0.070711
768.461158,-0.175000,0.073951
768.494747,0.075000,0.260708
768.528335,-0.025000,0.102317
768.561924,0.125000,0.041458
768.595512,0.050000,0.075000
768.629100,0.400000,0.122474
768.662688,-0.175000,0.064952
768.696275,-0.025000,0.102317
768.729862,-0.225000,0.096014
768.763449,-0.075000,0.021651
768.797036,-0.325000,0.041458
768.830623,0.100000,0.127475
768.864209,0.100000,0.209165
768.897795,-0.025000,0.041458
768.931381,0.025000,0.041458
768.964966,-0.150000,0.103078
768.998551,0.325000,0.138632
769.032136,0.200000,0.404660
769.065721,-0.100000,0.035355
769.099305,-0.150000,0.134629
769.132890,-0.125000,0.102317
769.166474,0.100000,0.093541
769.200057,-0.250000,0.075000
769.233641,-0.025000,0.041458
769.267224,-0.100000,0.093541
769.300807,-0.425000,0.064952
769.334390,-0.125000,0.108253
769.367972,0.050000,0.025000
769.401555,-0.275000,0.041458
769.435137,-0.150000,0.160078
769.468718,0.150000,0.195256
769.502300,-0.150000,0.090139
769.535881,-0.075000,0.143069
769.569462,-0.425000,0.073951
769.603043,-0.150000,0.090139
769.636623,0.175000,0.073951
769.670204,0.225000,0.253414
769.703784,0.000000,0.061237
769.737364,0.350000,0.195256
769.770943,0.025000,0.073951
769.804522,-0.025000,0.096014
769.838101,0.125000,0.108253
769.871680,-0.025000,0.129301
769.905259,-0.350000,0.082916
769.938837,0.050000,0.025000
769.972415,0.175000,0.267804
770.005993,0.025000,0.041458
770.039570,0.000000,0.061237
770.073147,-0.075000,0.073951
770.106724,-0.075000,0.021651
770.140301,0.350000,0.204634
770.173878,0.000000,0.061237
770.207454,0.050000,0.108972
770.241030,0.100000,0.117260
770.274606,0.025000,0.054486
770.308181,0.325000,0.138632
770.341757,0.025000,0.096014
770.375332,-0.025000,0.041458
770.408906,-0.150000,0.075000
770.442481,-0.100000,0.154110
770.476055,-0.150000,0.025000
770.509629,0.675000,0.240767
770.543203,0.050000,0.195256
770.576776,0.025000,0.124373
770.610350,0.225000,0.073951
770.643923,0.000000,0.035355
770.677495,0.375000,0.255869
770.711068,-0.075000,0.041458
770.744640,-0.150000,0.055902
770.778212,-0.175000,0.089268
770.811784,0.150000,0.125000
770.845356,0.000000,0.070711
770.878927,0.350000,0.143614
770.912498,0.075000,0.041458
770.946069,-0.075000,0.143069
770.979639,0.050000,0.134629
771.013209,0.350000,0.268095
771.046779,-0.250000,0.270416
771.080349,-0.150000,0.108972
771.113919,0.125000,0.102317
771.147488,0.200000,0.187083
771.181057,0.075000,0.054486
771.214626,0.150000,0.188746
771.248194,0.125000,0.113880
771.281762,-0.225000,0.054486
771.315330,0.000000,0.079057
771.348898,0.025000,0.054486
771.382465,-0.375000,0.081968
771.416033,0.550000,0.213600
771.449600,0.150000,0.075000
771.483166,0.200000,0.127475
771.516733,0.425000,0.343466
771.550299,0.675000,0.524851
771.583865,0.300000,0.433013
771.617431,0.000000,0.100000
771.650996,0.125000,0.155624
771.684562,0.075000,0.081968
771.718127,0.175000,0.134048
771.751691,0.000000,0.093541
771.785256,-0.100000,0.050000
771.818820,-0.175000,0.096014
771.852384,0.200000,0.061237
771.885948,-0.125000,0.041458
771.919511,-0.050000,0.227761
771.953074,0.325000,0.167239
771.986637,0.400000,0.145774
772.020200,0.225000,0.147373
772.053762,-0.200000,0.061237
772.087325,0.000000,0.061237
772.120887,-0.175000,0.129301
772.154448,0.075000,0.124373
772.188010,-0.150000,0.090139
772.221571,0.375000,0.245904
772.255132,0.125000,0.064952
772.288692,0.250000,0.025000
772.322253,0.350000,0.403887
772.355813,0.125000,0.194856
772.389373,-0.150000,0.332603
772.422933,-0.150000,0.103078
772.456492,0.025000,0.054486
772.490051,0.375000,0.054486
772.523610,-0.050000,0.043301
772.557169,-0.150000,0.114564
772.590727,0.075000,0.178098
772.624285,-0.050000,0.055902
772.657843,0.150000,0.055902
772.691401,0.175000,0.384667
772.724958,-0.175000,0.041458
772.758515,0.275000,0.124373
772.792072,0.325000,0.245904
772.825629,0.175000,0.194856
772.859185,0.300000,0.145774
772.892741,0.250000,0.075000
772.926297,0.325000,0.147373
772.959853,-0.025000,0.073951
772.993408,-0.625000,0.089268
773.026963,-0.050000,0.055902
773.060518,0.650000,0.566238
773.094073,-0.175000,0.073951
773.127627,-0.050000,0.025000
773.161181,0.150000,0.114564
773.194735,0.200000,0.106066
773.228289,0.225000,0.296595
773.261842,0.375000,0.096014
773.295395,0.100000,0.111803
773.328948,0.075000,0.096014
773.362500,0.350000,0.103078
773.396053,-0.175000,0.155624
773.429605,0.075000,0.064952
773.463157,0.675000,0.528412
773.496708,0.000000,0.035355
773.530260,-0.350000,0.055902
773.563811,-0.300000,0.079057
773.597361,-0.100000,0.145774
773.630912,0.025000,0.054486
773.664462,0.250000,0.025000
773.698012,-0.125000,0.041458
773.731562,0.025000,0.089268
773.765111,-0.125000,0.073951
773.798661,0.025000,0.081968
773.832210,0.050000,0.055902
773.865758,0.125000,0.041458
773.899307,0.475000,0.308980
773.932855,-0.025000,0.021651
773.966403,-0.325000,0.021651
773.999951,-0.025000,0.054486
774.033498,0.175000,0.143069
774.067046,0.225000,0.143069
774.100593,0.150000,0.043301
774.134139,0.125000,0.081968
774.167686,-0.025000,0.124373
774.201232,0.350000,0.134629
774.234778,0.100000,0.061237
774.268324,-0.100000,0.061237
774.301869,-0.100000,0.100000
774.335414,-0.225000,0.073951
774.368959,0.250000,0.219374
774.402504,-0.075000,0.041458
774.436048,-0.350000,0.055902
774.469592,-0.050000,0.075000
774.503136,0.000000,0.079057
774.536680,-0.025000,0.054486
774.570223,0.100000,0.061237
774.603766,0.150000,0.134629
774.637309,0.025000,0.108253
774.670852,0.175000,0.138632
774.704394,-0.025000,0.081968
774.737936,-0.025000,0.134048
774.771478,-0.250000,0.043301
774.805020,0.100000,0.061237
774.838561,0.000000,0.061237
774.872102,0.200000,0.061237
774.905643,0.175000,0.021651
774.939183,0.500000,0.395285
774.972724,0.050000,0.152069
775.006264,-0.025000,0.155624
775.039804,0.400000,0.093541
775.073343,-0.150000,0.025000
775.106882,-0.025000,0.170935
775.140421,0.325000,0.188331
775.173960,-0.200000,0.154110
775.207499,-0.200000,0.111803
775.241037,-0.025000,0.073951
775.274575,-0.250000,0.055902
775.308113,0.125000,0.054486
775.341650,0.225000,0.096014
775.375187,-0.125000,0.041458
775.408724,-0.175000,0.089268
775.442261,0.125000,0.134048
775.475798,-0.100000,0.061237
775.509334,0.050000,0.075000
775.542870,0.200000,0.297909
775.576405,0.500000,0.304138
775.609941,0.050000,0.082916
775.643476,0.250000,0.147902
775.677011,-0.325000,0.054486
775.710546,0.275000,0.219018
775.744080,0.350000,0.288314
775.777614,0.025000,0.021651
775.811148,-0.050000,0.103078
775.844682,-0.150000,0.125000
775.878215,-0.075000,0.113880
775.911748,0.075000,0.021651
775.945281,0.000000,0.035355
775.978814,0.025000,0.310996
776.012346,0.050000,0.219374
776.045878,-0.175000,0.054486
776.079410,0.275000,0.096014
776.112941,0.175000,0.081968
776.146473,0.075000,0.073951
776.180004,-0.025000,0.096014
776.213535,0.300000,0.176777
776.247065,0.000000,0.093541
776.280595,0.075000,0.096014
776.314125,-0.050000,0.103078
776.347655,-0.225000,0.096014
776.381185,-0.125000,0.041458
776.414714,0.250000,0.075000
776.448243,-0.025000,0.129301
776.481772,-0.125000,0.089268
776.515300,0.025000,0.113880
776.548828,0.150000,0.103078
776.582356,0.000000,0.136931
776.615884,-0.025000,0.102317
776.649411,-0.075000,0.021651
776.682938,0.175000,0.119242
776.716465,0.475000,0.326678
776.749992,0.000000,0.079057
776.783518,0.275000,0.167239
776.817044,0.450000,0.082916
776.850570,0.400000,0.176777
776.884096,0.200000,0.117260
776.917621,-0.250000,0.055902
776.951146,1.000000,0.271570
776.984671,-0.375000,0.198037
777.018196,0.150000,0.160078
777.051720,0.350000,0.143614
777.085244,0.750000,0.178536
777.118768,-0.475000,0.054486
777.152292,0.000000,0.079057
777.185815,0.300000,0.093541
777.219338,-0.125000,0.054486
777.252861,0.025000,0.054486
777.286383,0.000000,0.127475
777.319905,0.150000,0.125000
777.353427,0.275000,0.188331
777.386949,0.325000,0.240767
777.420471,0.175000,0.073951
777.453992,0.000000,0.061237
777.487513,0.150000,0.075000
777.521033,-0.525000,0.124373
777.554554,-0.275000,0.021651
777.588074,-0.025000,0.073951
777.621594,0.125000,0.041458
777.655114,0.325000,0.147373
777.688633,0.525000,0.258300
777.722152,0.025000,0.147373
777.755671,-0.100000,0.079057
777.789190,0.000000,0.061237
777.822708,-0.200000,0.061237
777.856226,0.325000,0.181573
777.889744,0.250000,0.129904
777.923261,0.125000,0.021651
777.956779,0.050000,0.075000
777.990296,0.050000,0.147902
778.023812,0.025000,0.041458
778.057329,-0.025000,0.073951
778.090845,0.175000,0.108253
778.124361,-0.025000,0.041458
778.157877,-0.175000,0.064952
778.191392,-0.200000,0.035355
778.224908,0.325000,0.170935
778.258423,0.175000,0.073951
778.291937,-0.150000,0.055902
778.325452,0.025000,0.096014
778.358966,-0.050000,0.103078
778.392480,-0.100000,0.150000
778.425993,-0.100000,0.000000
778.459507,0.200000,0.127475
778.493020,-0.050000,0.055902
778.526533,0.075000,0.081968
778.560045,-0.325000,0.096014
778.593558,-0.175000,0.041458
778.627070,-0.050000,0.108972
778.660582,0.075000,0.113880
778.694093,0.250000,0.103078
778.727605,-0.100000,0.111803
778.761116,0.400000,0.176777
778.794626,0.450000,0.227761
778.828137,0.050000,0.025000
778.861647,-0.100000,0.106066
778.895157,0.025000,0.102317
778.928667,0.300000,0.206155
778.962176,0.200000,0.079057
778.995686,0.025000,0.170935
779.029194,0.050000,0.103078
779.062703,0.125000,0.167239
779.096212,0.300000,0.061237
779.129720,0.325000,0.113880
779.163228,-0.050000,0.075000
779.196735,0.250000,0.114564
779.230243,-0.600000,0.000000
779.263750,0.175000,0.210283
779.297257,0.100000,0.093541
779.330763,-0.150000,0.055902
779.364269,0.500000,0.304138
779.397776,0.375000,0.267804
779.431281,0.025000,0.113880
779.464787,0.350000,0.134629
779.498292,0.150000,0.090139
779.531797,0.125000,0.096014
779.565302,0.100000,0.150000
779.598806,-0.100000,0.070711
779.632311,0.050000,0.055902
779.665814,0.275000,0.102317
779.699318,-0.025000,0.113880
779.732822,-0.050000,0.125000
779.766325,0.325000,0.296595
779.799828,0.000000,0.106066
779.833330,0.425000,0.310996
779.866833,-0.100000,0.106066
779.900335,0.050000,0.025000
779.933837,0.100000,0.061237
779.967338,0.050000,0.103078
780.000840,-0.175000,0.064952
780.034341,-0.250000,0.075000
780.067841,-0.075000,0.054486
780.101342,-0.175000,0.041458
780.134842,0.175000,0.041458
780.168342,-0.100000,0.061237
780.201842,0.200000,0.079057
780.235341,0.225000,0.081968
780.268841,0.150000,0.082916
780.302340,0.050000,0.134629
780.335838,0.175000,0.096014
780.369337,0.075000,0.089268
780.402835,0.100000,0.106066
780.436333,0.400000,0.127475
780.469830,0.425000,0.207289
780.503328,0.200000,0.127475
780.536825,0.400000,0.061237
780.570322,-0.150000,0.075000
780.603818,0.050000,0.075000
780.637315,-0.175000,0.054486
780.670811,0.450000,0.256174
780.704306,-0.025000,0.167239
780.737802,0.350000,0.125000
780.771297,-0.075000,0.054486
780.804792,0.000000,0.061237
780.838287,-0.025000,0.041458
780.871781,-0.150000,0.055902
780.905276,-0.075000,0.113880
780.938770,-0.100000,0.176777
780.972263,-0.050000,0.082916
781.005757,0.075000,0.089268
781.039250,0.125000,0.143069
781.072743,0.225000,0.064952
781.106235,-0.100000,0.127475
781.139728,-0.100000,0.050000
781.173220,0.425000,0.170935
781.206712,0.075000,0.021651
781.240203,0.050000,0.075000
781.273694,0.075000,0.041458
781.307185,-0.075000,0.089268
781.340676,0.425000,0.184983
781.374167,-0.050000,0.134629
781.407657,0.275000,0.041458
781.441147,0.325000,0.201168
781.474636,0.025000,0.064952
781.508126,-0.100000,0.000000
781.541615,0.075000,0.064952
781.575104,-0.150000,0.129904
781.608593,-0.075000,0.054486
781.642081,-0.150000,0.025000
781.675569,0.000000,0.000000
781.709057,-0.100000,0.093541
781.742544,0.025000,0.041458
781.776032,-0.150000,0.055902
781.809519,0.000000,0.127475
781.843006,0.050000,0.082916
781.876492,-0.100000,0.093541
781.909978,0.200000,0.061237
781.943464,0.075000,0.096014
781.976950,-0.100000,0.050000
782.010435,-0.075000,0.041458
782.043921,0.375000,0.227418
782.077406,-0.075000,0.041458
782.110890,0.125000,0.089268
782.144375,-0.150000,0.055902
782.177859,0.175000,0.163459
782.211343,0.275000,0.194856
782.244826,0.300000,0.035355
782.278309,0.575000,0.198037
782.311792,-0.050000,0.043301
782.345275,0.600000,0.244949
782.378758,0.375000,0.181573
782.412240,0.200000,0.231840
782.445722,0.600000,0.451387
782.479204,0.225000,0.194856
782.512685,-0.250000,0.167705
782.546166,-0.025000,0.021651
782.579647,0.050000,0.082916
782.613128,0.275000,0.155624
782.646608,-0.025000,0.041458
782.680088,0.150000,0.134629
782.713568,-0.250000,0.043301
782.747048,0.000000,0.122474
782.780527,-0.100000,0.173205
782.814006,0.350000,0.248747
782.847485,-0.025000,0.021651
782.880963,0.000000,0.154110
782.914442,-0.100000,0.035355
782.947920,-0.075000,0.021651
782.981397,0.025000,0.041458
783.014875,0.100000,0.035355
783.048352,0.100000,0.111803
783.081829,0.175000,0.113880
783.115306,-0.025000,0.073951
783.148782,0.000000,0.262202
783.182258,-0.400000,0.000000
783.215734,-0.000000,0.093541
783.249209,-0.225000,0.064952
783.282685,0.200000,0.079057
783.316160,-0.100000,0.111803
783.349635,-0.075000,0.041458
783.383109,-0.425000,0.073951
783.416583,0.050000,0.147902
783.450057,-0.100000,0.061237
783.483531,-0.100000,0.093541
783.517004,0.125000,0.081968
783.550477,-0.025000,0.129301
783.583950,0.125000,0.089268
783.617423,0.250000,0.163936
783.650895,0.100000,0.061237
783.684367,-0.200000,0.061237
783.717839,-0.225000,0.330483
783.751311,-0.200000,0.086603
783.784782,-0.050000,0.114564
783.818253,-0.100000,0.093541
783.851724,0.075000,0.041458
783.885194,0.050000,0.055902
783.918665,0.300000,0.111803
783.952134,0.125000,0.089268
783.985604,0.050000,0.025000
784.019074,0.375000,0.155624
784.052543,0.125000,0.064952
784.086012,-0.175000,0.041458
784.119480,0.275000,0.207289
784.152948,0.525000,0.174553
784.186416,0.575000,0.255869
784.219884,0.800000,0.262202
784.253352,0.375000,0.194856
784.286819,0.250000,0.134629
784.320286,-0.100000,0.093541
784.353753,0.075000,0.021651
784.387219,0.025000,0.064952
784.420685,0.100000,0.266927
784.454151,-0.050000,0.055902
784.487617,-0.150000,0.114564
784.521082,0.250000,0.204634
784.554547,0.775000,0.499218
784.588012,0.200000,0.262202
784.621477,0.150000,0.090139
784.654941,0.600000,0.388909
784.688405,0.200000,0.035355
784.721869,-0.000000,0.176777
784.755332,-0.125000,0.143069
784.788795,0.075000,0.073951
784.822258,0.100000,0.079057
784.855721,0.325000,0.073951
784.889183,-0.000000,0.093541
784.922646,-0.025000,0.124373
784.956107,0.125000,0.124373
784.989569,-0.150000,0.082916
785.023030,-0.050000,0.182003
785.056491,-0.075000,0.124373
785.089952,0.250000,0.055902
785.123413,-0.025000,0.054486
785.156873,-0.350000,0.055902
785.190333,0.050000,0.075000
785.223792,0.125000,0.108253
785.257252,0.225000,0.240767
785.290711,-0.150000,0.103078
785.324170,-0.100000,0.035355
785.357629,-0.125000,0.096014
785.391087,-0.000000,0.106066
785.424545,0.150000,0.082916
785.458003,0.100000,0.093541
785.491460,0.200000,0.035355
785.524918,0.250000,0.192029
785.558375,0.025000,0.054486
785.591831,0.025000,0.143069
785.625288,0.050000,0.160078
785.658744,-0.075000,0.113880
785.692200,0.000000,0.117260
785.725655,0.075000,0.081968
785.759111,0.550000,0.219374
785.792566,-0.050000,0.055902
785.826021,0.025000,0.108253
785.859475,-0.000000,0.136931
785.892930,-0.025000,0.041458
785.926384,0.125000,0.054486
785.959837,0.750000,0.261008
785.993291,0.825000,0.248433
786.026744,0.725000,0.630848
786.060197,0.400000,0.231840
786.093649,-0.275000,0.089268
786.127102,0.375000,0.324760
786.160554,0.175000,0.113880
786.194006,0.075000,0.210283
786.227457,0.150000,0.114564
786.260909,0.400000,0.093541
786.294360,0.025000,0.054486
786.327810,0.000000,0.122474
786.361261,0.075000,0.073951
786.394711,0.250000,0.192029
786.428161,-0.100000,0.061237
786.461611,0.100000,0.070711
786.495060,0.375000,0.230149
786.528509,-0.075000,0.113880
786.561958,0.225000,0.096014
786.595407,0.050000,0.025000
786.628855,0.200000,0.061237
786.662303,-0.225000,0.081968
786.695751,0.225000,0.265460
786.729198,-0.050000,0.055902
786.762645,0.000000,0.050000
786.796092,0.150000,0.195256
786.829539,0.200000,0.127475
786.862985,-0.050000,0.114564
786.896431,-0.075000,0.054486
786.929877,0.050000,0.055902
786.963323,-0.100000,0.176777
786.996768,0.150000,0.192029
787.030213,-0.025000,0.054486
787.063658,-0.100000,0.106066
787.097102,-0.175000,0.041458
787.130547,-0.375000,0.073951
787.163991,-0.225000,0.041458
787.197434,-0.400000,0.079057
787.230878,0.125000,0.073951
787.264321,0.150000,0.090139
787.297764,-0.200000,0.093541
787.331206,0.075000,0.041458
787.364648,-0.100000,0.035355
787.398090,0.325000,0.198037
787.431532,0.150000,0.108972
787.464974,-0.100000,0.050000
787.498415,-0.375000,0.021651
787.531856,0.450000,0.256174
787.565296,-0.300000,0.070711
787.598737,0.125000,0.041458
787.632177,0.325000,0.081968
787.665617,-0.150000,0.043301
787.699056,0.225000,0.201168
787.732496,-0.400000,0.127475
787.765935,0.225000,0.232849
787.799373,0.525000,0.163459
787.832812,0.525000,0.174553
787.866250,0.300000,0.322102
787.899688,0.800000,0.196850
787.933126,0.325000,0.129301
787.966563,0.350000,0.167705
788.000000,0.375000,0.089268
788.033437,-0.125000,0.073951
788.066873,0.425000,0.170935
788.100310,0.050000,0.075000
788.133746,0.075000,0.041458
788.167181,0.050000,0.043301
788.200617,0.025000,0.073951
788.234052,0.075000,0.041458
788.267487,-0.175000,0.054486
788.300921,-0.050000,0.055902
788.334356,0.050000,0.055902
788.367790,0.100000,0.093541
788.401224,0.275000,0.041458
788.434657,-0.050000,0.129904
788.468090,-0.025000,0.073951
788.501523,0.050000,0.075000
788.534956,0.150000,0.043301
788.568389,0.200000,0.145774
788.601821,0.025000,0.081968
788.635253,0.050000,0.090139
788.668684,0.125000,0.129301
788.702116,0.075000,0.155624
788.735547,-0.100000,0.086603
788.768977,0.000000,0.061237
788.802408,0.050000,0.055902
788.835838,-0.050000,0.075000
788.869268,-0.025000,0.113880
788.902698,-0.150000,0.055902
788.936127,-0.075000,0.073951
788.969556,0.075000,0.064952
789.002985,0.125000,0.081968
789.036414,0.225000,0.143069
789.069842,0.100000,0.050000
789.103270,0.125000,0.064952
789.136698,0.050000,0.108972
789.170125,0.075000,0.113880
789.203552,0.200000,0.093541
789.236979,0.475000,0.129301
789.270406,0.250000,0.305164
789.303832,0.125000,0.113880
789.337258,-0.075000,0.041458
789.370684,-0.250000,0.075000
789.404110,0.100000,0.086603
789.437535,0.425000,0.124373
789.470960,0.000000,0.093541
789.504385,0.025000,0.041458
789.537809,0.075000,0.041458
789.571233,-0.200000,0.050000
789.604657,0.275000,0.167239
789.638081,0.125000,0.119242
789.671504,0.475000,0.163459
789.704927,0.825000,0.364649
789.738350,0.550000,0.376663
789.771772,0.925000,0.119242
789.805195,0.900000,0.291548
789.838617,0.350000,0.082916
789.872038,0.375000,0.138632
789.905460,-0.650000,0.134629
789.938881,0.025000,0.021651
789.972302,-0.075000,0.134048
790.005722,-0.050000,0.055902
790.039143,-0.125000,0.089268
790.072563,0.100000,0.145774
790.105982,0.025000,0.041458
790.139402,0.125000,0.021651
790.172821,-0.325000,0.064952
790.206240,0.175000,0.041458
790.239658,0.075000,0.021651
790.273077,0.225000,0.143069
790.306495,0.125000,0.151554
790.339913,0.050000,0.025000
790.373330,0.150000,0.055902
790.406747,0.775000,0.567203
790.440164,-0.025000,0.064952
790.473581,-0.100000,0.035355
790.506997,0.125000,0.113880
790.540414,-0.000000,0.093541
790.573829,0.175000,0.181573
790.607245,0.100000,0.100000
790.640660,0.000000,0.079057
790.674075,0.300000,0.079057
790.707490,0.100000,0.035355
790.740904,0.275000,0.167239
790.774319,-0.025000,0.054486
790.807733,0.050000,0.055902
790.841146,0.300000,0.206155
790.874560,-0.375000,0.021651
790.907973,0.125000,0.041458
790.941385,0.700000,0.209165
790.974798,0.475000,0.174553
791.008210,0.525000,0.235518
791.041622,0.075000,0.102317
791.075034,0.400000,0.154110
791.108445,0.275000,0.210283
791.141856,0.025000,0.021651
791.175267,0.000000,0.093541
791.208678,0.075000,0.041458
791.242088,0.200000,0.176777
791.275498,0.000000,0.035355
791.308908,0.150000,0.043301
791.342317,0.350000,0.082916
791.375726,0.300000,0.206155
791.409135,-0.025000,0.054486
791.442544,-0.400000,0.050000
791.475952,0.375000,0.129301
791.509360,-0.225000,0.089268
791.542768,1.000000,0.437321
791.576176,2.675000,0.697652
791.609583,1.575000,0.248433
791.642990,2.800000,0.136931
791.676396,0.775000,0.204252
791.709803,0.325000,0.073951
791.743209,-0.025000,0.054486
791.776615,0.100000,0.122474
791.810020,-0.050000,0.025000
791.843425,0.225000,0.089268
791.876830,-0.575000,0.073951
791.910235,0.275000,0.210283
791.943640,-0.100000,0.061237
791.977044,-0.225000,0.054486
792.010448,-0.250000,0.082916
792.043851,-0.025000,0.081968
792.077254,-0.075000,0.064952
792.110658,-0.050000,0.055902
792.144060,-0.025000,0.054486
792.177463,0.175000,0.113880
792.210865,0.100000,0.061237
792.244267,0.300000,0.035355
792.277668,0.050000,0.108972
792.311070,0.100000,0.093541
792.344471,0.200000,0.035355
792.377872,0.150000,0.103078
792.411272,0.075000,0.054486
792.444672,0.150000,0.055902
792.478072,0.050000,0.043301
792.511472,-0.050000,0.108972
792.544871,0.075000,0.124373
792.578271,0.100000,0.162019
792.611669,0.100000,0.079057
792.645068,0.075000,0.096014
792.678466,-0.300000,0.086603
792.711864,-0.125000,0.064952
792.745262,-0.025000,0.021651
792.778659,0.200000,0.165831
792.812056,-0.025000,0.073951
792.845453,0.125000,0.054486
792.878850,0.550000,0.235850
792.912246,0.400000,0.291548
792.945642,0.175000,0.178098
792.979038,0.375000,0.216145
793.012433,0.275000,0.216145
793.045829,-0.100000,0.061237
793.079223,-0.175000,0.194856
793.112618,-0.375000,0.073951
793.146012,0.300000,0.117260
793.179406,-0.125000,0.041458
793.212800,-0.125000,0.108253
793.246194,-0.050000,0.075000
793.279587,0.150000,0.075000
793.312980,0.175000,0.054486
793.346373,-0.125000,0.181573
793.379765,0.275000,0.188331
793.413157,1.125000,0.198037
793.446549,2.150000,0.400780
793.479940,3.775000,0.738559
793.513332,2.925000,0.865574
793.546723,1.825000,0.765976
793.580113,0.650000,0.309233
793.613504,-0.050000,0.103078
793.646894,-0.300000,0.061237
793.680284,0.275000,0.279229
793.713673,-0.125000,0.073951
793.747062,-0.025000,0.089268
793.780451,0.225000,0.129301
793.813840,0.200000,0.061237
793.847228,0.175000,0.181573
793.880617,0.100000,0.079057
793.914004,0.250000,0.143614
793.947392,-0.200000,0.093541
793.980779,-0.300000,0.093541
794.014166,-0.400000,0.035355
794.047553,0.200000,0.086603
794.080940,0.375000,0.194856
794.114326,0.200000,0.093541
794.147712,0.000000,0.154110
794.181097,0.725000,0.288043
794.214483,0.325000,0.113880
794.247868,0.200000,0.122474
794.281252,0.075000,0.054486
794.314637,-0.150000,0.143614
794.348021,-0.050000,0.055902
794.381405,-0.075000,0.054486
794.414788,0.125000,0.054486
794.448172,0.225000,0.054486
794.481555,0.175000,0.194856
794.514938,0.350000,0.143614
794.548320,0.100000,0.154110
794.581702,-0.075000,0.064952
794.615084,0.225000,0.113880
794.648466,0.025000,0.181573
794.681847,0.100000,0.093541
794.715228,-0.250000,0.219374
794.748609,0.775000,0.364649
794.781990,0.450000,0.227761
794.815370,0.966667,0.167083
794.848750,0.375000,0.255869
794.882129,-0.200000,0.127475
794.915509,0.350000,0.207666
794.948888,-0.525000,0.064952
794.982267,-0.075000,0.041458
795.015645,-0.000000,0.111803
795.049023,0.050000,0.219374
795.082401,-0.025000,0.113880
795.115779,-0.125000,0.054486
795.149156,0.150000,0.090139
795.182534,0.150000,0.055902
795.215910,0.000000,0.061237
795.249287,0.150000,0.055902
795.282663,1.050000,0.167705
795.316039,3.075000,0.542419
795.349415,5.525000,0.988291
795.382790,5.825000,0.643598
795.416165,6.666667,0.235407
795.449540,2.925000,0.354216
795.482915,0.800000,0.276134
795.516289,0.600000,0.280624
795.549663,0.000000,0.145774
795.583037,-0.200000,0.079057
795.616410,0.400000,0.291548
795.649783,-0.525000,0.041458
795.683156,0.050000,0.055902
795.716529,0.200000,0.035355
795.749901,-0.275000,0.096014
795.783273,-0.025000,0.089268
795.816645,-0.175000,0.081968
795.850016,0.075000,0.129301
795.883387,0.025000,0.064952
795.916758,0.050000,0.103078
795.950129,0.150000,0.134629
795.983499,0.075000,0.178098
796.016869,-0.275000,0.021651
796.050239,-0.350000,0.129904
796.083608,-0.075000,0.089268
796.116977,-0.075000,0.081968
796.150346,0.100000,0.413824
796.183714,0.025000,0.073951
796.217083,0.375000,0.194856
796.250451,-0.150000,0.134629
796.283818,0.000000,0.093541
796.317186,0.200000,0.203101
796.350553,0.225000,0.064952
796.383920,-0.125000,0.184983
796.417286,0.050000,0.025000
796.450653,0.025000,0.235518
796.484019,0.175000,0.089268
796.517384,-0.025000,0.041458
796.550750,0.275000,0.163459
796.584115,0.025000,0.064952
796.617480,-0.075000,0.096014
796.650844,0.075000,0.113880
796.684209,0.225000,0.188331
796.717573,-0.250000,0.043301
796.750936,0.225000,0.081968
796.784300,0.925000,0.430661
796.817663,-0.025000,0.073951
796.851026,0.100000,0.086603
796.884388,-0.050000,0.055902
796.917751,0.275000,0.178098
796.951113,0.075000,0.155624
796.984474,0.400000,0.242384
797.017836,0.250000,0.055902
797.051197,0.075000,0.138632
797.084558,0.075000,0.207289
797.117918,0.225000,0.224653
797.151279,0.425000,0.230149
797.184639,1.700000,0.280624
797.217998,5.025000,0.627868
797.251358,7.600000,0.295804
797.284717,9.350000,1.373181
797.318076,8.500000,0.858050
797.351434,1.275000,0.119242
797.384793,0.750000,0.396074
797.418151,0.200000,0.117260
797.451508,0.125000,0.064952
797.484866,0.225000,0.108253
797.518223,0.075000,0.064952
797.551580,-0.075000,0.124373
797.584936,-0.100000,0.061237
797.618292,-0.175000,0.041458
797.651648,0.050000,0.025000
797.685004,-0.075000,0.108253
797.718360,0.225000,0.081968
797.751715,0.025000,0.064952
797.785069,0.150000,0.043301
797.818424,0.000000,0.035355
797.851778,-0.050000,0.025000
797.885132,-0.575000,0.064952
797.918486,0.125000,0.089268
797.951839,0.100000,0.035355
797.985192,-0.025000,0.021651
798.018545,0.150000,0.090139
798.051898,0.200000,0.127475
798.085250,0.075000,0.184983
798.118602,-0.125000,0.102317
798.151954,0.600000,0.293684
798.185305,0.250000,0.251247
798.218656,0.150000,0.025000
798.252007,0.350000,0.090139
798.285357,0.300000,0.070711
798.318708,-0.150000,0.043301
798.352057,0.400000,0.377492
798.385407,0.175000,0.167239
798.418756,0.150000,0.103078
798.452106,0.175000,0.108253
798.485454,-0.100000,0.050000
798.518803,0.225000,0.081968
798.552151,0.150000,0.134629
798.585499,0.125000,0.041458
798.618847,-0.125000,0.054486
798.652194,0.125000,0.181573
798.685541,0.275000,0.096014
798.718888,0.300000,0.206155
798.752234,-0.025000,0.089268
798.785580,0.250000,0.108972
798.818926,0.425000,0.207289
798.852272,-0.050000,0.025000
798.885617,0.125000,0.188331
798.918962,0.575000,0.265460
798.952307,-0.050000,0.134629
798.985651,0.800000,0.196850
799.018996,0.550000,0.453459
799.052339,0.600000,0.318198
799.085683,3.100000,0.257391
799.119026,7.500000,1.209855
799.152369,15.825000,1.596627
799.185712,22.650000,0.439460
799.219054,16.000000,0.561249
799.252397,3.800000,0.840387
799.285738,0.975000,0.336108
799.319080,0.025000,0.041458
799.352421,-0.050000,0.075000
799.385762,0.275000,0.113880
799.419103,0.175000,0.096014
799.452443,0.075000,0.089268
799.485783,0.000000,0.079057
799.519123,0.075000,0.089268
799.552463,-0.000000,0.209165
799.585802,-0.075000,0.119242
799.619141,0.300000,0.234521
799.652480,0.000000,0.154110
799.685818,-0.175000,0.265460
799.719156,0.300000,0.145774
799.752494,0.700000,0.244949
799.785831,0.300000,0.293684
799.819169,0.150000,0.134629
799.852506,0.300000,0.154110
799.885842,0.000000,0.145774
799.919179,-0.225000,0.102317
799.952515,0.200000,0.035355
799.985850,0.575000,0.378112
800.019186,-0.150000,0.160078
800.052521,0.300000,0.273861
800.085856,-0.100000,0.093541
800.119191,0.375000,0.054486
800.152525,0.475000,0.089268
800.185859,0.125000,0.113880
800.219193,0.300000,0.106066
800.252526,0.250000,0.103078
800.285859,0.625000,0.397453
800.319192,0.050000,0.143614
800.352525,0.075000,0.064952
800.385857,0.375000,0.159589
800.419189,0.250000,0.025000
800.452521,0.500000,0.122474
800.485852,0.425000,0.113880
800.519183,0.025000,0.260708
800.552514,0.250000,0.394493
800.585844,-0.550000,0.256174
800.619175,0.450000,0.192029
800.652505,0.425000,0.198037
800.685834,0.775000,0.417395
800.719164,0.100000,0.165831
800.752493,0.650000,0.325000
800.785821,0.225000,0.054486
800.819150,0.100000,0.269258
800.852478,0.625000,0.394295
800.885806,0.100000,0.035355
800.919134,0.675000,0.224653
800.952461,0.375000,0.184983
800.985788,4.350000,0.642748
801.019115,20.425000,1.430199
801.052441,40.325000,2.125551
801.085767,53.200000,1.888452
801.119093,50.366667,0.778888
801.152419,19.375000,2.921125
801.185744,6.250000,1.380444
801.219069,0.325000,0.129301
801.252394,0.300000,0.217945
801.285718,-0.025000,0.096014
801.319042,-0.050000,0.025000
801.352366,-0.075000,0.155624
801.385690,0.925000,0.221853
801.419013,-0.475000,0.198037
801.452336,0.975000,0.652280
801.485658,0.475000,0.298695
801.518981,0.275000,0.138632
801.552303,0.275000,0.386288
801.585625,-0.025000,0.041458
801.618946,0.025000,0.054486
801.652267,-0.275000,0.134048
801.685588,-0.050000,0.103078
801.718909,0.400000,0.259808
801.752229,0.550000,0.134629
801.785549,0.025000,0.041458
801.818869,0.225000,0.198037
801.852188,-0.300000,0.093541
801.885507,0.125000,0.041458
801.918826,0.425000,0.213234
801.952145,-0.075000,0.096014
801.985463,0.425000,0.460129
802.018781,0.425000,0.230149
802.052099,0.150000,0.143614
802.085416,0.225000,0.096014
802.118733,0.425000,0.230149
802.152050,0.325000,0.188331
802.185366,0.100000,0.122474
802.218683,0.275000,0.064952
802.251999,-0.075000,0.054486
802.285314,-0.325000,0.073951
802.318630,0.050000,0.108972
802.351945,-0.125000,0.041458
802.385259,0.125000,0.113880
802.418574,0.025000,0.073951
802.451888,0.200000,0.106066
802.485202,0.475000,0.096014
802.518515,-0.025000,0.108253
802.551829,0.450000,0.182003
802.585142,0.725000,0.238157
802.618454,0.800000,0.229129
802.651767,0.325000,0.143069
802.685079,-0.775000,0.089268
802.718391,0.050000,0.075000
802.751702,-0.025000,0.113880
802.785013,0.575000,0.276981
802.818324,0.625000,0.119242
802.851635,0.325000,0.073951
802.884945,1.300000,0.362284
802.918255,8.766667,1.156683
802.951565,35.750000,1.976265
802.984874,64.875000,1.699770
803.018184,92.875000,3.541782
803.051492,56.550000,0.760140
803.084801,15.750000,2.256795
803.118109,2.866667,0.512754
803.151417,-0.100000,0.269258
803.184725,0.550000,0.147902
803.218032,0.350000,0.114564
803.251339,0.225000,0.073951
803.284646,0.300000,0.203101
803.317953,0.625000,0.170935
803.351259,-0.375000,0.096014
803.384565,0.000000,0.154110
803.417870,0.175000,0.073951
803.451176,0.475000,0.108253
803.484481,-0.075000,0.073951
803.517786,0.575000,0.411362
803.551090,0.300000,0.122474
803.584394,0.375000,0.224653
803.617698,0.200000,0.150000
803.651002,0.275000,0.227418
803.684305,0.125000,0.147373
803.717608,0.000000,0.000000
803.750910,-0.050000,0.275000
803.784213,0.525000,0.159589
803.817515,0.300000,0.154110
803.850817,-0.150000,0.143614
803.884118,0.275000,0.174553
803.917419,0.425000,0.204252
803.950720,0.800000,0.337268
803.984021,0.175000,0.081968
804.017321,0.525000,0.235518
804.050621,-0.200000,0.122474
804.083921,0.050000,0.134629
804.117220,-0.000000,0.187083
804.150519,0.500000,0.262202
804.183818,0.175000,0.134048
804.217117,-0.225000,0.147373
804.250415,0.650000,0.227761
804.283713,0.450000,0.108972
804.317011,0.325000,0.096014
804.350308,0.550000,0.235850
804.383605,0.250000,0.195256
804.416902,0.550000,0.311247
804.450198,0.450000,0.025000
804.483494,0.400000,0.176777
804.516790,0.975000,0.313000
804.550086,0.175000,0.119242
804.583381,-0.150000,0.075000
804.616676,0.450000,0.167705
804.649971,0.475000,0.243349
804.683265,0.075000,0.021651
804.716559,-0.100000,0.266927
804.749853,0.425000,0.124373
804.783146,0.150000,0.114564
804.816440,2.025000,0.368061
804.849732,13.875000,0.543570
804.883025,58.800000,1.278671
804.916317,113.366667,1.308307
804.949609,134.125000,2.696149
804.982901,92.533333,2.193836
805.016192,23.225000,2.032970
805.049484,4.350000,0.481534
805.082774,0.400000,0.035355
805.116065,0.550000,0.195256
805.149355,-0.075000,0.041458
805.182645,0.800000,0.491172
805.215935,0.400000,0.122474
805.249224,0.125000,0.096014
805.282513,0.500000,0.158114
805.315802,0.350000,0.152069
805.349090,-0.025000,0.041458
805.382378,0.050000,0.129904
805.415666,0.100000,0.117260
805.448954,0.500000,0.180278
805.482241,0.025000,0.170935
805.515528,0.000000,0.035355
805.548815,0.475000,0.174553
805.582101,0.475000,0.167239
805.615387,0.300000,0.079057
805.648673,0.275000,0.113880
805.681958,0.375000,0.395877
805.715243,1.000000,0.196850
805.748528,0.375000,0.108253
805.781813,0.200000,0.183712
805.815097,0.325000,0.178098
805.848381,-0.125000,0.108253
805.881665,0.750000,0.349106
805.914948,0.875000,0.352447
805.948231,1.150000,0.413068
805.981514,-0.250000,0.090139
806.014796,0.525000,0.232849
806.048079,0.400000,0.127475
806.081360,0.275000,0.096014
806.114642,0.200000,0.145774
806.147923,0.125000,0.081968
806.181204,0.275000,0.113880
806.214485,0.475000,0.224653
806.247765,0.100000,0.183712
806.281046,0.400000,0.079057
806.314325,-0.125000,0.041458
806.347605,0.400000,0.190394
806.380884,-0.300000,0.093541
806.414163,1.000000,0.262202
806.447441,0.625000,0.201168
806.480720,0.225000,0.124373
806.513998,0.375000,0.113880
806.547275,1.175000,0.466871
806.580553,0.150000,0.160078
806.613830,0.275000,0.178098
806.647107,0.725000,0.216145
806.680383,0.525000,0.240767
806.713659,1.200000,0.215058
806.746935,1.800000,0.665207
806.780211,16.050000,0.942404
806.813486,81.600000,1.760327
806.846761,196.166667,5.928146
806.880036,284.450000,2.158269
806.913310,258.725000,1.991035
806.946584,71.133333,3.869162
806.979858,10.633333,0.960035
807.013132,2.575000,0.790866
807.046405,1.025000,0.188331
807.079678,0.750000,0.175000
807.112951,0.625000,0.343466
807.146223,0.100000,0.215058
807.179495,0.325000,0.347086
807.212767,-0.075000,0.352447
807.246038,0.400000,0.136931
807.279309,0.400000,0.242384
807.312580,0.025000,0.073951
807.345850,0.200000,0.035355
807.379121,0.150000,0.147902
807.412390,0.000000,0.117260
807.445660,0.625000,0.389511
807.478929,0.675000,0.314990
807.512198,1.100000,0.443001
807.545467,-0.050000,0.075000
807.578735,0.200000,0.289396
807.612004,-0.525000,0.064952
807.645271,-0.000000,0.106066
807.678539,-0.125000,0.255869
807.711806,0.200000,0.035355
807.745073,0.125000,0.314990
807.778340,0.275000,0.201168
807.811606,0.775000,0.198037
807.844872,1.425000,0.339807
807.878138,0.750000,0.256174
807.911403,0.300000,0.493710
807.944668,0.350000,0.129904
807.977933,0.200000,0.106066
808.011197,0.225000,0.073951
808.044462,0.425000,0.221853
808.077725,0.225000,0.188331
808.110989,0.425000,0.054486
808.144252,0.900000,0.322102
808.177515,1.200000,0.254951
808.210778,0.475000,0.207289
808.244040,0.250000,0.160078
808.277302,0.775000,0.290205
808.310564,0.225000,0.096014
808.343826,1.150000,0.175000
808.377087,0.650000,0.389711
808.410348,1.125000,0.432110
808.443608,0.525000,0.143069
808.476869,0.175000,0.213234
808.510129,0.125000,0.163459
808.543388,1.100000,0.358818
808.576648,0.525000,0.298695
808.609907,0.200000,0.158114
808.643165,1.475000,0.263095
808.676424,2.200000,0.364005
808.709682,7.875000,0.408312
808.742940,64.133333,2.032958
808.776197,269.133333,1.927542
808.809455,456.375000,10.292860
808.842712,472.675000,7.041606
808.875968,313.750000,4.967708
808.909225,57.125000,3.206902
808.942481,7.925000,1.368108
808.975736,1.450000,0.219374
809.008992,1.175000,0.601431
809.042247,0.425000,0.216145
809.075502,0.975000,0.644569
809.108756,0.125000,0.534293
809.142011,0.500000,0.079057
809.175265,0.400000,0.215058
809.208518,0.600000,0.145774
809.241772,0.250000,0.275000
809.275025,0.325000,0.167239
809.308277,0.275000,0.227418
809.341530,0.500000,0.145774
809.374782,0.750000,0.261008
809.408034,0.650000,0.328824
809.441285,-0.000000,0.079057
809.474536,0.475000,0.354216
809.507787,0.725000,0.603505
809.541038,0.600000,0.136931
809.574288,1.400000,0.732291
809.607538,-0.000000,0.117260
809.640788,0.025000,0.255869
809.674037,0.200000,0.070711
809.707286,0.550000,0.277263
809.740535,1.375000,0.198037
809.773783,0.700000,0.262202
809.807032,0.925000,0.198037
809.840279,0.175000,0.326678
809.873527,0.175000,0.306951
809.906774,0.925000,0.178098
809.940021,0.575000,0.167239
809.973268,0.475000,0.041458
810.006514,0.500000,0.106066
810.039760,-0.075000,0.159589
810.073006,0.550000,0.294746
810.106251,0.725000,0.207289
810.139497,1.050000,0.354436
810.172741,0.425000,0.265460
810.205986,1.175000,0.279229
810.239230,-0.100000,0.231840
810.272474,1.450000,0.491808
810.305718,1.350000,0.476314
810.338961,0.900000,0.604152
810.372204,1.375000,0.655148
810.405447,-0.150000,0.235850
810.438689,2.250000,0.708431
810.471931,0.500000,0.295804
810.505173,0.575000,0.191621
810.538414,0.900000,0.196850
810.571656,0.600000,0.035355
810.604897,1.475000,0.188331
810.638137,2.150000,0.225000
810.671377,22.525000,0.972352
810.704617,149.500000,3.642115
810.737857,645.825000,8.156085
810.771096,963.825000,19.303250
810.804335,911.400000,16.065063
810.837574,514.100000,6.207757
810.870813,88.000000,4.276243
810.904051,13.375000,1.282758
810.937288,4.050000,0.414578
810.970526,1.225000,0.178098
811.003763,0.150000,0.213600
811.037000,0.100000,0.231840
811.070237,0.525000,0.143069
811.103473,0.625000,0.480072
811.136709,0.600000,0.379144
811.169945,0.450000,0.334477
811.203180,1.275000,0.381404
811.236415,0.425000,0.227418
811.269650,0.025000,0.155624
811.302884,0.225000,0.260708
811.336119,-0.275000,0.113880
811.369352,0.050000,0.108972
811.402586,0.500000,0.262202
811.435819,0.000000,0.536190
811.469052,0.050000,0.581485
811.502285,-0.550000,0.684197
811.535517,1.475000,0.742778
811.568749,1.300000,0.636396
811.601981,2.375000,0.695858
811.635212,0.525000,0.412879
811.668443,0.200000,0.183712
811.701674,0.725000,0.119242
811.734905,1.500000,0.434454
811.768135,1.850000,0.432290
811.801365,0.450000,0.235850
811.834594,0.325000,0.219018
811.867824,0.125000,0.250936
811.901053,0.700000,0.541987
811.934281,0.625000,0.611734
811.967510,0.200000,0.209165
812.000738,0.375000,0.096014
812.033965,0.875000,0.240767
812.067193,0.600000,0.348210
812.100420,0.150000,0.213600
812.133647,0.700000,0.344601
812.166873,-1.175000,0.224653
812.200099,1.100000,0.344601
812.233325,0.550000,0.369966
812.266551,0.200000,0.079057
812.299776,0.000000,0.111803
812.333001,0.550000,0.248747
812.366226,1.500000,0.337268
812.399450,0.400000,0.136931
812.432674,0.300000,0.176777
812.465898,-0.125000,0.178098
812.499121,0.400000,0.145774
812.532345,0.375000,0.198037
812.565567,0.925000,0.184983
812.598790,1.825000,0.552692
812.632012,4.800000,0.527968
812.665234,34.800000,0.555653
812.698456,213.875000,3.595548
812.731677,408.300000,3.409545
812.764898,419.425000,6.995925
812.798119,260.625000,7.565743
812.831339,53.825000,2.007914
812.864559,7.375000,0.780525
812.897779,0.700000,0.280624
812.930998,0.825000,0.201168
812.964217,0.250000,0.134629
812.997436,0.275000,0.143069
813.030655,0.325000,0.041458
813.063873,0.125000,0.113880
813.097091,0.000000,0.050000
813.130308,-0.125000,0.224653
813.163526,0.425000,0.138632
813.196743,0.400000,0.358818
813.229959,0.350000,0.246221
813.263176,0.250000,0.147902
813.296392,-0.225000,0.054486
813.329607,0.125000,0.170935
813.362823,0.175000,0.054486
813.396038,0.250000,0.114564
813.429253,0.325000,0.320887
813.462467,-0.225000,0.096014
813.495682,0.225000,0.240767
813.528895,0.425000,0.281458
813.562109,0.675000,0.343466
813.595322,0.150000,0.188746
813.628535,0.200000,0.117260
813.661748,0.675000,0.439282
813.694960,0.450000,0.213600
813.728172,0.625000,0.302851
813.761384,0.050000,0.134629
813.794596,-0.575000,0.124373
813.827807,0.575000,0.468208
813.861017,-0.175000,0.041458
813.894228,0.375000,0.383039
813.927438,0.225000,0.064952
813.960648,0.275000,0.124373
813.993858,-0.175000,0.064952
814.027067,0.450000,0.178536
814.060276,0.050000,0.134629
814.093485,-0.100000,0.050000
814.126693,-0.325000,0.124373
814.159901,-0.075000,0.096014
814.193109,-0.025000,0.245904
814.226316,0.275000,0.021651
814.259523,0.175000,0.151554
814.292730,0.150000,0.090139
814.325936,0.325000,0.230149
814.359143,0.100000,0.162019
814.392348,0.325000,0.155624
814.425554,-0.100000,0.061237
814.458759,0.350000,0.309233
814.491964,-0.075000,0.119242
814.525169,0.300000,0.262202
814.558373,0.550000,0.286138
814.591577,0.325000,0.238157
814.624781,0.425000,0.276981
814.657984,0.500000,0.127475
