#{
#    "background_file": "Backgrounds\\\\bg_787.999nm_13bin_219st_244en_10.0s_110g_4x_5_seq.txt",
#    "ccd_image_settings": [
#        1,
#        13,
#        1,
#        1600,
#        219,
#        244
#    ],
#    "ccd_temperature": "-87",
#    "cdRatios": {
#        "mean": 0.9331215672766803,
#        "std": 0.013205961837569176
#    },
#    "center_lambda": 786.0,
#    "comments": "",
#    "dark_region": 17.84327042132195,
#    "date": "10/22/20 15:26:42PM",
#    "eff_field": 1.5,
#    "exposure": 10.0,
#    "fel_lambda": "15.0",
#    "fel_pol": "H",
#    "fel_pulses": 43,
#    "fel_pyro_cal": "0.012",
#    "fel_reprate": "1.07",
#    "fel_transmission": "1.0",
#    "fel_transmission_fits": {
#        "A": 1.0,
#        "C": 0.0,
#        "Mu": 0.0
#    },
#    "fieldInt": {
#        "mean": 5507.948729166666,
#        "std": 549.5971485865603
#    },
#    "fieldStrength": {
#        "mean": 33.85258143939394,
#        "std": 2.1690490545075725
#    },
#    "fpTime": {
#        "mean": 1.2048045903080828,
#        "std": 0.0745861800498495
#    },
#    "gain": 110,
#    "grating": 3,
#    "images_in_sequence": [
#        "hsg_820nm_c123_a45_HAna281.txt",
#        "hsg_820nm_c123_a45_HAna282.txt",
#        "hsg_820nm_c123_a45_HAna283.txt",
#        "hsg_820nm_c123_a45_HAna284.txt"
#    ],
#    "nir_lambda": "819.98",
#    "nir_pola": "45",
#    "nir_polg": "0",
#    "nir_power": "100.0",
#    "pulseEnergies": {
#        "mean": 1.7044375,
#        "std": 0.1791493604431241
#    },
#    "pyroVoltage": {
#        "mean": 0.15223186875199343,
#        "std": 0.016857929181828255
#    },
#    "rotatorAngle": 67.49999633788168,
#    "sample_Temp": "55",
#    "sample_name": "L001218.C1",
#    "series": "820_Fan",
#    "slits": "60",
#    "spec_step": "",
#    "window_trans": 0.92,
#    "y_max": 2,
#    "y_min": 1
#}
#
#
#
#
#
#
#
#
#
#
#
#
#
#
#
#
#
#
#
#
#
#
#
#
#
#
Wavelength,Signal,error
nm,arb. u.,arb.u.
Wavelength,820_Fan,error
759.194366,-0.155303,0.066988
759.228015,-0.281818,0.117919
759.261663,-0.072727,0.041161
759.295311,0.184091,0.189888
759.328959,-0.068182,0.037689
759.362607,-0.070455,0.081335
759.396254,0.229545,0.067065
759.429901,0.325000,0.121899
759.463548,-0.161364,0.036699
759.497194,-0.004545,0.087522
759.530841,0.204545,0.284545
759.564487,0.179545,0.167947
759.598133,-0.217424,0.049311
759.631779,0.043182,0.076424
759.665424,-0.234091,0.123163
759.699069,0.045455,0.022727
759.732714,0.613636,0.317166
759.766359,0.318182,0.250000
759.800003,-0.248485,0.074412
759.833648,0.000000,0.055670
759.867292,-0.138636,0.038753
759.900935,0.165909,0.119329
759.934579,0.488636,0.298660
759.968222,0.047727,0.075745
760.001865,-0.004545,0.134129
760.035508,0.621212,0.315737
760.069151,-0.513636,0.096075
760.102793,-0.062121,0.080898
760.136435,0.231818,0.081407
760.170077,0.277273,0.043301
760.203718,0.181818,0.055670
760.237360,0.209091,0.185586
760.271001,-0.184091,0.101149
760.304642,0.209091,0.098228
760.338283,0.113636,0.155395
760.371923,-0.062121,0.037137
760.405563,-0.217424,0.019117
760.439203,0.062121,0.037137
760.472843,-0.062121,0.018603
760.506482,0.136364,0.068182
760.540122,-0.163636,0.067726
760.573761,0.247727,0.178243
760.607399,0.320455,0.176788
760.641038,0.062121,0.121692
760.674676,-0.341667,0.037809
760.708314,-0.072727,0.127110
760.741952,-0.206818,0.133507
760.775589,-0.070455,0.103671
760.809227,-0.186364,0.003936
760.842864,0.206818,0.035989
760.876501,-0.155303,0.037258
760.910137,-0.043182,0.094551
760.943774,0.140909,0.051975
760.977410,-0.043182,0.069337
761.011046,-0.124242,0.037206
761.044681,0.002273,0.056625
761.078317,-0.372727,0.033091
761.111952,-0.279545,0.032679
761.145587,-0.163636,0.050206
761.179221,-0.095455,0.047835
761.212856,0.231818,0.134129
761.246490,-0.231818,0.020706
761.280124,-0.025000,0.059732
761.313758,0.068182,0.113067
761.347391,-0.163636,0.130321
761.381024,-0.095455,0.057631
761.414657,-0.513636,0.055064
761.448290,-0.372727,0.007873
761.481923,-0.145455,0.088374
761.515555,-0.325000,0.049624
761.549187,-0.124242,0.018741
761.582819,0.022727,0.049533
761.616450,-0.093182,0.001968
761.650082,0.345455,0.150893
761.683713,-0.068182,0.037689
761.717344,-0.443182,0.024766
761.750974,-0.031061,0.018568
761.784605,-0.465909,0.056533
761.818235,-0.163636,0.038569
761.851865,0.206818,0.086565
761.885494,0.124242,0.092821
761.919124,-0.093182,0.001968
761.952753,0.022727,0.074516
761.986382,0.068182,0.087286
762.020010,-0.309091,0.251360
762.053639,-0.256818,0.050654
762.087267,0.284091,0.355874
762.120895,-0.093182,0.032201
762.154523,0.045455,0.050820
762.188150,-0.002273,0.116348
762.221777,0.236364,0.361871
762.255404,0.113636,0.137777
762.289031,0.000000,0.055670
762.322658,0.363636,0.265043
762.356284,-0.097727,0.099761
762.389910,0.236364,0.097277
762.423536,-0.115909,0.074369
762.457161,-0.027273,0.062158
762.490786,0.254545,0.116952
762.524411,-0.168182,0.074239
762.558036,0.486364,0.393563
762.591661,0.310606,0.121861
762.625285,-0.143182,0.124415
762.658909,0.025000,0.038753
762.692533,0.043182,0.094551
762.726157,0.293182,0.115009
762.759780,0.047727,0.051363
762.793403,0.124242,0.049167
762.827026,0.345455,0.136515
762.860649,0.062121,0.037137
762.894271,-0.093182,0.064313
762.927893,0.031061,0.037119
762.961515,-0.025000,0.059732
762.995137,-0.068182,0.059047
763.028758,-0.113636,0.059047
763.062379,0.000000,0.000000
763.096000,0.372727,0.111618
763.129621,-0.159091,0.067228
763.163241,-0.118182,0.039886
763.196862,0.124242,0.049167
763.230481,-0.025000,0.067831
763.264101,0.397727,0.281752
763.297721,0.020455,0.060163
763.331340,0.090909,0.078730
763.364959,-0.031061,0.037119
763.398578,-0.062121,0.037137
763.432196,0.341667,0.130098
763.465814,0.295455,0.282724
763.499432,-0.136364,0.050820
763.533050,0.209091,0.080930
763.566668,0.000000,0.055670
763.600285,0.343182,0.206064
763.633902,-0.450000,0.144510
763.667519,0.381818,0.368771
763.701135,-0.020455,0.088044
763.734752,-0.002273,0.085666
763.768368,-0.234091,0.041706
763.801984,-0.248485,0.067113
763.835599,0.043182,0.052359
763.869215,-0.243182,0.172589
763.902830,-0.168182,0.117370
763.936444,-0.093182,0.064313
763.970059,0.313636,0.331873
764.003673,-0.120455,0.063748
764.037288,0.138636,0.067831
764.070901,-0.031818,0.351994
764.104515,0.154545,0.140616
764.138128,0.031061,0.037119
764.171742,-0.310606,0.081153
764.205354,-0.068182,0.037689
764.238967,-0.184091,0.054770
764.272580,0.045455,0.050820
764.306192,0.068182,0.037689
764.339804,0.002273,0.056625
764.373415,-0.209091,0.049167
764.407027,-0.434848,0.020706
764.440638,0.136364,0.068182
764.474249,-0.306818,0.098248
764.507860,-0.163636,0.067726
764.541470,-0.188636,0.037119
764.575080,-0.393182,0.085242
764.608690,-0.209091,0.066959
764.642300,0.040909,0.096504
764.675909,0.204545,0.103528
764.709519,0.429545,0.224882
764.743128,0.050000,0.095427
764.776736,0.047727,0.023918
764.810345,-0.093182,0.032201
764.843953,0.097727,0.127085
764.877561,-0.163636,0.021320
764.911169,0.068182,0.148599
764.944776,0.315909,0.255019
764.978384,0.236364,0.107373
765.011991,0.293182,0.319484
765.045598,-0.062121,0.018603
765.079204,0.068182,0.087286
765.112810,0.022727,0.067228
765.146416,-0.161364,0.086863
765.180022,0.227273,0.196824
765.213628,-0.025000,0.067831
765.247233,0.229545,0.199052
765.280838,0.040909,0.101716
765.314443,0.479545,0.208184
765.348048,-0.217424,0.037397
765.381652,-0.234091,0.105057
765.415256,0.090909,0.106600
765.448860,0.088636,0.112282
765.482463,-0.168182,0.092793
765.516067,0.750000,0.511616
765.549670,-0.209091,0.049167
765.583273,0.068182,0.117546
765.616875,0.320455,0.112511
765.650478,0.040909,0.101716
765.684080,-0.047727,0.040064
765.717682,0.211364,0.118678
765.751283,-0.277273,0.123712
765.784885,-0.097727,0.076289
765.818486,0.115909,0.049311
765.852087,0.300000,0.234300
765.885687,-0.279545,0.032679
765.919288,0.155303,0.049206
765.952888,0.093182,0.064313
765.986488,0.124242,0.066959
766.020087,0.206818,0.097774
766.053687,-0.115909,0.177080
766.087286,0.304545,0.062117
766.120885,0.045455,0.104149
766.154484,-0.302273,0.103322
766.188082,-0.124242,0.049167
766.221680,0.156818,0.142490
766.255278,0.206818,0.216217
766.288876,-0.138636,0.021651
766.322473,0.209091,0.037206
766.356070,-0.002273,0.046619
766.389667,0.000000,0.064282
766.423264,0.031061,0.049101
766.456860,0.217424,0.019117
766.490457,0.118182,0.060473
766.524053,0.434091,0.192857
766.557648,0.155303,0.098248
766.591244,0.365909,0.114559
766.624839,0.088636,0.097509
766.658434,0.068182,0.087286
766.692029,0.250000,0.165066
766.725623,0.159091,0.049533
766.759217,-0.062121,0.037137
766.792811,0.409091,0.188787
766.826405,-0.070455,0.098563
766.859999,0.118182,0.039886
766.893592,-0.009091,0.217185
766.927185,0.206818,0.073671
766.960777,0.088636,0.107583
766.994370,-0.468182,0.042336
767.027962,-0.047727,0.149219
767.061554,-0.279545,0.005905
767.095146,0.254545,0.086483
767.128737,0.250000,0.354101
767.162329,0.022727,0.049533
767.195920,-0.231818,0.074793
767.229510,-0.124242,0.037206
767.263101,0.161364,0.161679
767.296691,-0.068182,0.087286
767.330281,-0.025000,0.038753
767.363871,0.297727,0.079732
767.397460,0.000000,0.192847
767.431050,0.045455,0.050820
767.464639,-0.155303,0.049206
767.498227,0.045455,0.039365
767.531816,-0.025000,0.067831
767.565404,-0.025000,0.021651
767.598992,0.000000,0.064282
767.632580,0.181818,0.143740
767.666168,-0.534091,0.033614
767.699755,0.388636,0.338711
767.733342,0.002273,0.033767
767.766929,0.496970,0.130321
767.800515,0.495455,0.366487
767.834101,0.204545,0.152035
767.867687,0.161364,0.117233
767.901273,-0.188636,0.080890
767.934859,0.113636,0.117546
767.968444,0.279545,0.160815
768.002029,-0.031061,0.037119
768.035614,-0.190909,0.187028
768.069198,0.161364,0.066679
768.102783,-0.043182,0.052359
768.136367,0.434091,0.147303
768.169950,0.124242,0.103353
768.203534,0.115909,0.158615
768.237117,0.113636,0.126029
768.270700,-0.206818,0.048252
768.304283,-0.279545,0.032679
768.337866,-0.068182,0.037689
768.371448,0.090909,0.071870
768.405030,-0.045455,0.075378
768.438612,-0.118182,0.039886
768.472193,0.248485,0.204192
768.505775,0.136364,0.118094
768.539356,0.528030,0.194059
768.572936,-0.070455,0.049832
768.606517,-0.155303,0.018844
768.640097,-0.231818,0.020706
768.673677,0.068182,0.037689
768.707257,-0.209091,0.049167
768.740836,-0.403788,0.038081
768.774416,0.155303,0.037258
768.807995,-0.004545,0.074793
768.841574,0.000000,0.140100
768.875152,0.124242,0.049167
768.908730,0.155303,0.074299
768.942308,0.090909,0.071870
768.975886,0.090909,0.032141
769.009464,-0.006818,0.101302
769.043041,0.411364,0.198532
769.076618,-0.115909,0.098300
769.110195,0.025000,0.059732
769.143771,-0.236364,0.073011
769.177348,-0.124242,0.049167
769.210924,-0.093182,0.064313
769.244499,0.140909,0.069048
769.278075,-0.236364,0.154679
769.311650,0.043182,0.094551
769.345225,0.454545,0.309959
769.378800,0.018182,0.070711
769.412375,0.031061,0.049101
769.445949,0.300000,0.116509
769.479523,0.206818,0.206440
769.513097,0.163636,0.081565
769.546670,-0.155303,0.018844
769.580243,0.090909,0.096424
769.613816,0.136364,0.093707
769.647389,0.020455,0.039414
769.680962,-0.062121,0.018603
769.714534,0.186364,0.003936
769.748106,0.095455,0.047835
769.781678,0.031061,0.037119
769.815249,-0.022727,0.049533
769.848820,0.000000,0.055670
769.882391,-0.047727,0.023918
769.915962,0.115909,0.037397
769.949533,0.025000,0.059732
769.983103,-0.045455,0.022727
770.016673,-0.090909,0.085038
770.050243,-0.310606,0.049533
770.083812,0.020455,0.081968
770.117381,0.093182,0.001968
770.150950,0.186364,0.055809
770.184519,0.093182,0.055705
770.218088,-0.393182,0.072112
770.251656,-0.213636,0.072834
770.285224,-0.025000,0.087751
770.318791,0.097727,0.174967
770.352359,-0.279545,0.064553
770.385926,-0.186364,0.032381
770.419493,0.109091,0.170197
770.453060,-0.004545,0.214204
770.486626,0.220455,0.223107
770.520192,-0.229545,0.049311
770.553758,0.000000,0.032141
770.587324,0.227273,0.093707
770.620890,0.234091,0.069560
770.654455,0.124242,0.049167
770.688020,-0.211364,0.069188
770.721584,0.181818,0.184637
770.755149,0.320455,0.249491
770.788713,-0.206818,0.080377
770.822277,0.134091,0.105400
770.855841,0.093182,0.032201
770.889404,-0.031061,0.018568
770.922967,0.468182,0.186682
770.956530,0.000000,0.032141
770.990093,-0.143182,0.055519
771.023655,-0.045455,0.022727
771.057217,-0.327273,0.083567
771.090779,0.138636,0.050347
771.124341,-0.093182,0.085060
771.157902,-0.002273,0.046619
771.191463,0.031061,0.049101
771.225024,0.522727,0.434055
771.258585,-0.027273,0.069976
771.292145,-0.045455,0.039365
771.325705,0.045455,0.152459
771.359265,-0.161364,0.058421
771.392825,0.022727,0.037689
771.426384,-0.231818,0.113249
771.459943,-0.045455,0.050820
771.493502,-0.043182,0.052359
771.527061,-0.124242,0.037206
771.560619,-0.062121,0.018603
771.594177,0.000000,0.000000
771.627735,-0.047727,0.023918
771.661293,0.120455,0.132263
771.694850,-0.140909,0.051975
771.728407,-0.002273,0.116348
771.761964,-0.022727,0.019682
771.795521,-0.256818,0.022355
771.829077,-0.279545,0.085242
771.862633,-0.002273,0.046619
771.896189,0.045455,0.130558
771.929744,-0.050000,0.070528
771.963300,0.256818,0.093617
771.996855,0.093182,0.085060
772.030409,-0.190909,0.077806
772.063964,0.090909,0.078730
772.097518,-0.403788,0.020423
772.131072,0.093182,0.055705
772.164626,0.025000,0.067831
772.198180,0.050000,0.070528
772.231733,0.395455,0.214011
772.265286,0.279545,0.195597
772.298839,0.063636,0.090568
772.332391,0.365909,0.094823
772.365943,0.020455,0.126555
772.399495,0.152273,0.195068
772.433047,0.156818,0.191918
772.466598,0.254545,0.035791
772.500150,0.418182,0.161859
772.533701,-0.254545,0.086483
772.567251,0.113636,0.126029
772.600802,0.088636,0.086266
772.634352,0.095455,0.035428
772.667902,-0.434848,0.158815
772.701452,0.138636,0.081652
772.735001,0.115909,0.037397
772.768550,0.095455,0.035428
772.802099,0.031061,0.080890
772.835648,0.002273,0.046619
772.869196,-0.062121,0.037137
772.902744,-0.155303,0.049206
772.936292,-0.062121,0.049114
772.969840,0.068182,0.037689
773.003387,-0.020455,0.075404
773.036934,0.202273,0.159751
773.070481,0.043182,0.104909
773.104028,0.095455,0.073399
773.137574,0.000000,0.085038
773.171120,-0.095455,0.086334
773.204666,0.181818,0.157459
773.238212,0.068182,0.037689
773.271757,-0.370455,0.123373
773.305302,-0.050000,0.053926
773.338847,0.062121,0.092793
773.372391,0.325000,0.093064
773.405936,0.047727,0.051363
773.439480,-0.093182,0.032201
773.473024,0.113636,0.059047
773.506567,0.302273,0.066910
773.540110,-0.234091,0.026577
773.573653,-0.031061,0.066910
773.607196,-0.025000,0.059732
773.640739,0.295455,0.230377
773.674281,-0.279545,0.032679
773.707823,-0.329545,0.074299
773.741365,0.020455,0.075404
773.774906,-0.100000,0.211400
773.808447,-0.140909,0.094339
773.841988,0.020455,0.075404
773.875529,0.206818,0.107823
773.909070,-0.093182,0.147303
773.942610,0.161364,0.017714
773.976150,-0.513636,0.031079
774.009689,-0.022727,0.074516
774.043229,0.025000,0.059732
774.076768,-0.009091,0.138841
774.110307,0.065909,0.130771
774.143845,0.062121,0.018603
774.177384,0.229545,0.092897
774.210922,0.068182,0.171210
774.244460,-0.118182,0.060473
774.277997,0.062121,0.049114
774.311535,0.272727,0.215610
774.345072,-0.155303,0.018844
774.378609,-0.020455,0.060163
774.412145,0.403788,0.130177
774.445682,0.000000,0.032141
774.479218,0.256818,0.022355
774.512754,0.179545,0.161679
774.546289,-0.124242,0.066959
774.579824,-0.234091,0.026577
774.613359,0.068182,0.059047
774.646894,0.413636,0.215646
774.680429,0.025000,0.141763
774.713963,-0.155303,0.049206
774.747497,0.395455,0.129904
774.781031,-0.163636,0.050206
774.814564,0.062121,0.018603
774.848097,0.090909,0.032141
774.881630,-0.093182,0.032201
774.915163,-0.234091,0.026577
774.948696,0.281818,0.075103
774.982228,-0.062121,0.018603
775.015760,-0.093182,0.140114
775.049291,-0.002273,0.033767
775.082823,-0.097727,0.099761
775.116354,-0.186364,0.032381
775.149885,0.095455,0.047835
775.183416,0.062121,0.018603
775.216946,0.068182,0.059047
775.250476,-0.279545,0.032679
775.284006,0.090909,0.032141
775.317535,0.062121,0.037137
775.351065,-0.145455,0.075788
775.384594,0.043182,0.094551
775.418123,0.495455,0.301537
775.451651,-0.093182,0.096444
775.485180,0.002273,0.056625
775.518708,-0.136364,0.183233
775.552235,0.062121,0.066920
775.585763,0.050000,0.077506
775.619290,-0.697727,0.049101
775.652817,-0.070455,0.020423
775.686344,0.031061,0.049101
775.719870,0.070455,0.049832
775.753397,-0.075000,0.091384
775.786923,0.047727,0.051363
775.820448,0.031061,0.066910
775.853974,0.145455,0.196981
775.887499,0.155303,0.037258
775.921024,0.252273,0.112282
775.954549,0.275000,0.156814
775.988073,0.018182,0.070711
776.021597,-0.186364,0.085129
776.055121,0.206818,0.125531
776.088645,0.731818,0.369016
776.122168,-0.186364,0.128625
776.155691,0.118182,0.060473
776.189214,0.111364,0.159427
776.222737,-0.217424,0.098300
776.256259,-0.045455,0.022727
776.289781,0.093182,0.032201
776.323303,0.047727,0.023918
776.356824,-0.325000,0.049624
776.390346,-0.068182,0.037689
776.423867,0.211364,0.069188
776.457387,-0.310606,0.103528
776.490908,0.140909,0.051975
776.524428,0.140909,0.069048
776.557948,0.181818,0.140100
776.591468,-0.068182,0.087286
776.624987,-0.052273,0.073881
776.658506,-0.020455,0.075404
776.692025,0.068182,0.098412
776.725544,-0.072727,0.088840
776.759062,0.020455,0.050858
776.792581,-0.181818,0.111340
776.826099,0.093182,0.032201
776.859616,-0.140909,0.025206
776.893134,0.154545,0.133066
776.926651,0.186364,0.167057
776.960167,-0.115909,0.081017
776.993684,0.403788,0.297030
777.027200,0.020455,0.039414
777.060716,0.181818,0.090909
777.094232,0.045455,0.022727
777.127748,0.020455,0.075404
777.161263,-0.186364,0.003936
777.194778,0.211364,0.061269
777.228293,0.572727,0.339451
777.261807,-0.461364,0.103820
777.295322,0.195455,0.205641
777.328836,0.190909,0.110689
777.362349,-0.047727,0.099346
777.395863,-0.062121,0.018603
777.429376,-0.138636,0.021651
777.462889,0.000000,0.064282
777.496401,0.179545,0.161679
777.529914,0.038636,0.118460
777.563426,-0.161364,0.066679
777.596938,-0.124242,0.066959
777.630449,-0.025000,0.021651
777.663961,0.181818,0.064282
777.697472,0.068182,0.037689
777.730983,0.070455,0.020423
777.764493,0.268182,0.272756
777.798004,0.165909,0.077298
777.831514,-0.124242,0.049167
777.865023,-0.002273,0.132925
777.898533,0.118182,0.088257
777.932042,0.072727,0.041161
777.965551,0.140909,0.082666
777.999060,-0.093182,0.032201
778.032568,0.186364,0.170121
778.066076,0.045455,0.022727
778.099584,0.131818,0.102726
778.133092,0.068182,0.067228
778.166599,0.163636,0.021320
778.200107,-0.093182,0.001968
778.233613,-0.211364,0.069188
778.267120,-0.022727,0.019682
778.300626,0.159091,0.049533
778.334132,-0.022727,0.098412
778.367638,-0.093182,0.055705
778.401144,-0.047727,0.040064
778.434649,-0.095455,0.047835
778.468154,-0.186364,0.032381
778.501659,-0.155303,0.018844
778.535163,0.068182,0.059047
778.568668,0.136364,0.254099
778.602172,0.025000,0.038753
778.635675,0.111364,0.152810
778.669179,-0.045455,0.050820
778.702682,0.211364,0.041082
778.736185,-0.025000,0.038753
778.769688,-0.068182,0.037689
778.803190,0.000000,0.000000
778.836692,-0.256818,0.050654
778.870194,0.363636,0.292820
778.903696,0.022727,0.074516
778.937197,0.418182,0.151984
778.970698,0.124242,0.049167
779.004199,0.043182,0.175026
779.037699,0.118182,0.130716
779.071200,0.179545,0.117233
779.104700,-0.002273,0.046619
779.138199,0.062121,0.018603
779.171699,-0.062121,0.018603
779.205198,-0.190909,0.063147
779.238697,0.338636,0.226940
779.272196,-0.095455,0.086334
779.305694,-0.097727,0.076289
779.339192,0.025000,0.038753
779.372690,0.022727,0.049533
779.406188,-0.045455,0.068182
779.439685,-0.027273,0.069976
779.473182,-0.163636,0.038569
779.506679,0.002273,0.102165
779.540176,-0.124242,0.018741
779.573672,0.136364,0.068182
779.607168,0.256818,0.022355
779.640664,0.043182,0.254411
779.674160,0.231818,0.113249
779.707655,0.279545,0.055982
779.741150,0.345455,0.246965
779.774644,-0.138636,0.050347
779.808139,-0.027273,0.114722
779.841633,-0.211364,0.041082
779.875127,0.254545,0.140982
779.908621,-0.045455,0.050820
779.942114,0.213636,0.185015
779.975607,0.124242,0.098228
780.009100,0.186364,0.115954
780.042593,-0.002273,0.079407
780.076085,0.124242,0.158571
780.109577,-0.031061,0.018568
780.143069,0.068182,0.019682
780.176560,-0.022727,0.049533
780.210052,0.434848,0.177258
780.243543,0.070455,0.098563
780.277033,0.045455,0.022727
780.310524,-0.143182,0.055519
780.344014,-0.072727,0.041161
780.377504,0.113636,0.098412
780.410994,-0.138636,0.050347
780.444483,-0.124242,0.018741
780.477972,0.000000,0.032141
780.511461,0.300000,0.072869
780.544950,-0.027273,0.114722
780.578438,0.204545,0.158685
780.611926,0.000000,0.096424
780.645414,0.062121,0.018603
780.678902,0.118182,0.088257
780.712389,0.165909,0.062521
780.745876,0.115909,0.067065
780.779363,-0.163636,0.050206
780.812849,-0.124242,0.018741
780.846335,-0.354545,0.077806
780.879821,-0.097727,0.076289
780.913307,-0.002273,0.056625
780.946792,0.095455,0.137176
780.980277,0.118182,0.171708
781.013762,-0.025000,0.087751
781.047247,-0.045455,0.093707
781.080731,0.047727,0.023918
781.114215,-0.115909,0.049311
781.147699,-0.022727,0.074516
781.181183,-0.206818,0.080377
781.214666,-0.031061,0.049101
781.248149,-0.161364,0.058421
781.281632,-0.072727,0.052223
781.315114,0.068182,0.067228
781.348596,0.155303,0.066988
781.382078,0.163636,0.067726
781.415560,0.217424,0.103422
781.449041,0.177273,0.143074
781.482522,-0.031061,0.066910
781.516003,0.234091,0.026577
781.549484,-0.352273,0.065031
781.582964,0.063636,0.078335
781.616444,-0.372727,0.111618
781.649924,0.070455,0.049832
781.683404,0.093182,0.032201
781.716883,0.161364,0.058421
781.750362,0.047727,0.040064
781.783841,0.093182,0.001968
781.817319,-0.027273,0.166205
781.850797,-0.161364,0.036699
781.884275,0.063636,0.111062
781.917753,-0.050000,0.053926
781.951230,-0.068182,0.087286
781.984707,0.206818,0.048252
782.018184,0.155303,0.103372
782.051661,-0.062121,0.066920
782.085137,-0.072727,0.104841
782.118613,0.200000,0.167751
782.152089,0.322727,0.065987
782.185564,0.068182,0.087286
782.219040,0.186364,0.115954
782.252515,0.095455,0.057631
782.285989,-0.155303,0.049206
782.319464,0.152273,0.146705
782.352938,0.250000,0.074516
782.386412,0.295455,0.257882
782.419885,0.227273,0.252058
782.453359,-0.145455,0.082322
782.486832,-0.163636,0.093376
782.520305,0.065909,0.051363
782.553777,0.002273,0.046619
782.587249,-0.300000,0.034317
782.620721,0.124242,0.037206
782.654193,-0.090909,0.032141
782.687665,-0.188636,0.049101
782.721136,0.277273,0.146639
782.754607,0.043182,0.123037
782.788077,0.095455,0.035428
782.821548,-0.062121,0.049114
782.855018,0.186364,0.178998
782.888488,-0.120455,0.071392
782.921957,0.227273,0.159091
782.955427,0.093182,0.055705
782.988896,-0.090909,0.101639
783.022365,-0.097727,0.069188
783.055833,-0.022727,0.067228
783.089301,-0.062121,0.080898
783.122769,-0.231818,0.067535
783.156237,0.070455,0.020423
783.189704,-0.248485,0.049376
783.223172,-0.124242,0.037206
783.256638,-0.163636,0.067726
783.290105,0.302273,0.151895
783.323571,0.818182,0.124482
783.357037,-0.002273,0.033767
783.390503,0.293182,0.242243
783.423969,0.136364,0.050820
783.457434,0.338636,0.233669
783.490899,-0.047727,0.051363
783.524364,0.115909,0.049311
783.557828,0.025000,0.059732
783.591292,0.165909,0.083714
783.624756,0.020455,0.050858
783.658220,-0.211364,0.041082
783.691683,0.093182,0.055705
783.725146,0.000000,0.032141
783.758609,0.043182,0.052359
783.792072,0.322727,0.133357
783.825534,-0.025000,0.038753
783.858996,-0.186364,0.085129
783.892458,-0.047727,0.040064
783.925919,0.300000,0.047019
783.959381,0.000000,0.032141
783.992842,0.072727,0.061322
784.026302,-0.138636,0.021651
784.059763,0.000000,0.085038
784.093223,0.068182,0.141476
784.126683,-0.090909,0.032141
784.160142,0.072727,0.061322
784.193601,-0.188636,0.191054
784.227060,-0.002273,0.072612
784.260519,0.229545,0.121771
784.293978,0.047727,0.051363
784.327436,0.118182,0.039886
784.360894,0.093182,0.085060
784.394352,-0.122727,0.093900
784.427809,-0.248485,0.019285
784.461266,0.127273,0.410049
784.494723,0.093182,0.115904
784.528180,-0.161364,0.066679
784.561636,-0.118182,0.039886
784.595092,-0.047727,0.082282
784.628548,0.062121,0.103328
784.662003,0.040909,0.071978
784.695458,0.018182,0.070711
784.728913,-0.186364,0.032381
784.762368,-0.045455,0.081944
784.795823,0.165909,0.089672
784.829277,-0.068182,0.087286
784.862731,0.000000,0.032141
784.896184,0.020455,0.104168
784.929637,-0.161364,0.036699
784.963091,0.031061,0.112878
784.996543,0.000000,0.032141
785.029996,0.065909,0.068588
785.063448,0.683333,0.122538
785.096900,0.184091,0.215379
785.130352,0.403788,0.145184
785.163803,-0.217424,0.037397
785.197254,0.234091,0.105057
785.230705,0.297727,0.187837
785.264156,-0.118182,0.068484
785.297606,-0.093182,0.055705
785.331056,0.020455,0.081968
785.364506,0.152273,0.229160
785.397955,-0.155303,0.066988
785.431405,0.022727,0.049533
785.464854,0.279545,0.116037
785.498302,0.320455,0.148177
785.531751,0.113636,0.155395
785.565199,-0.050000,0.077506
785.598647,0.063636,0.078335
785.632094,0.070455,0.103671
785.665542,-0.124242,0.066959
785.698989,-0.186364,0.064403
785.732436,-0.124242,0.049167
785.765882,0.165909,0.105547
785.799328,0.124242,0.049167
785.832774,-0.211364,0.041082
785.866220,0.188636,0.058685
785.899665,0.090909,0.078730
785.933111,0.252273,0.201245
785.966555,0.118182,0.088257
786.000000,0.252273,0.140850
786.033444,0.204545,0.177142
786.066888,-0.090909,0.045455
786.100332,-0.093182,0.055705
786.133776,0.229545,0.067065
786.167219,0.345455,0.106794
786.200662,0.204545,0.130063
786.234104,0.163636,0.152256
786.267547,-0.062121,0.018603
786.300989,-0.004545,0.087522
786.334431,0.093182,0.178966
786.367872,-0.070455,0.049832
786.401314,0.418182,0.259847
786.434755,0.000000,0.032141
786.468196,-0.090909,0.032141
786.501636,0.234091,0.166030
786.535076,-0.163636,0.067726
786.568516,-0.102273,0.124871
786.601956,0.086364,0.118596
786.635395,0.454545,0.341666
786.668834,0.234091,0.076627
786.702273,0.062121,0.049114
786.735712,0.140909,0.076162
786.769150,0.043182,0.094551
786.802588,0.106818,0.212433
786.836026,0.045455,0.099066
786.869463,0.113636,0.148599
786.902900,0.186364,0.147342
786.936337,0.345455,0.157590
786.969774,0.797727,0.493348
787.003210,0.722727,0.344399
787.036646,0.418182,0.092932
787.070082,0.415909,0.213404
787.103518,0.031061,0.018568
787.136953,0.310606,0.130063
787.170388,0.634091,0.501860
787.203823,-0.254545,0.086483
787.237257,0.027273,0.110128
787.270691,0.065909,0.094003
787.304125,-0.090909,0.055670
787.337559,0.600000,0.304172
787.370992,-0.029545,0.170784
787.404425,-0.248485,0.019285
787.437858,0.062121,0.018603
787.471290,0.070455,0.020423
787.504723,0.338636,0.231447
787.538155,-0.159091,0.087286
787.571586,0.284091,0.170360
787.605018,-0.062121,0.037137
787.638449,0.155303,0.037258
787.671880,0.062121,0.049114
787.705310,-0.004545,0.067535
787.738741,0.000000,0.032141
787.772171,0.411364,0.198532
787.805600,0.531818,0.382649
787.839030,-0.168182,0.108211
787.872459,-0.027273,0.123399
787.905888,0.002273,0.056625
787.939317,-0.006818,0.090532
787.972745,-0.004545,0.087522
788.006173,0.031061,0.037119
788.039601,-0.095455,0.047835
788.073028,-0.004545,0.108593
788.106456,-0.068182,0.037689
788.139883,0.386364,0.414578
788.173309,0.252273,0.065899
788.206736,0.159091,0.141476
788.240162,0.186364,0.055809
788.273588,0.504545,0.231361
788.307013,0.027273,0.110128
788.340439,0.270455,0.148699
788.373864,-0.279545,0.055982
788.407288,0.229545,0.171146
788.440713,-0.027273,0.062158
788.474137,0.000000,0.085038
788.507561,0.090909,0.055670
788.540985,0.154545,0.179358
788.574408,-0.072727,0.099793
788.607831,0.206818,0.125531
788.641254,0.090909,0.106600
788.674677,-0.020455,0.118111
788.708099,-0.062121,0.018603
788.741521,-0.115909,0.019117
788.774943,0.352273,0.079342
788.808364,1.170455,0.438458
788.841785,1.127273,0.312217
788.875206,0.427273,0.254586
788.908627,-0.031061,0.018568
788.942047,0.072727,0.082822
788.975467,0.156818,0.270166
789.008887,0.072727,0.088840
789.042306,-0.329545,0.058773
789.075726,0.031061,0.018568
789.109145,-0.234091,0.026577
789.142563,0.115909,0.037397
789.175982,0.186364,0.085129
789.209400,0.031061,0.037119
789.242817,-0.020455,0.104168
789.276235,0.045455,0.022727
789.309652,0.045455,0.162305
789.343069,0.062121,0.066920
789.376486,0.155303,0.049206
789.409902,0.000000,0.032141
789.443319,-0.434848,0.067535
789.476735,0.031061,0.049101
789.510150,0.204545,0.130063
789.543565,0.206818,0.097774
789.576980,0.002273,0.096978
789.610395,0.593182,0.276403
789.643810,0.440909,0.193209
789.677224,-0.155303,0.049206
789.710638,0.161364,0.112741
789.744052,-0.256818,0.022355
789.777465,0.002273,0.079407
789.810878,-0.093182,0.064313
789.844291,0.031061,0.037119
789.877703,-0.072727,0.076331
789.911116,-0.095455,0.057631
789.944528,-0.155303,0.037258
789.977939,0.111364,0.130968
790.011351,-0.231818,0.038233
790.044762,0.086364,0.082666
790.078173,0.668182,0.362406
790.111583,-0.136364,0.050820
790.144994,0.018182,0.105822
790.178404,0.186364,0.064403
790.211813,0.062121,0.018603
790.245223,0.095455,0.086334
790.278632,0.236364,0.073011
790.312041,0.136364,0.050820
790.345450,-0.188636,0.058685
790.378858,0.022727,0.049533
790.412266,0.068182,0.037689
790.445674,0.188636,0.074230
790.479081,0.184091,0.135999
790.512488,0.252273,0.102670
790.545895,-0.093182,0.032201
790.579302,-0.031061,0.080890
790.612708,0.248485,0.049376
790.646115,0.461364,0.219018
790.679520,0.990909,0.217185
790.712926,0.445455,0.182555
790.746331,0.031061,0.133816
790.779736,0.113636,0.087286
790.813141,0.093182,0.085060
790.846545,0.093182,0.032201
790.879949,0.068182,0.113067
790.913353,0.229545,0.117453
790.946757,-0.404545,0.226396
790.980160,-0.306818,0.087101
791.013563,0.134091,0.105400
791.046966,0.211364,0.069188
791.080368,-0.211364,0.025587
791.113771,-0.062121,0.018603
791.147173,0.343182,0.167331
791.180574,-0.093182,0.032201
791.213976,0.154545,0.133066
791.247377,0.297727,0.203669
791.280777,0.363636,0.192847
791.314178,-0.052273,0.278877
791.347578,-0.403788,0.049832
791.380978,0.090909,0.242661
791.414378,0.086364,0.099664
791.447777,0.093182,0.032201
791.481176,0.025000,0.038753
791.514575,0.045455,0.152459
791.547973,-0.068182,0.087286
791.581372,0.090909,0.106600
791.614770,-0.115909,0.092897
791.648167,-0.062121,0.018603
791.681565,-0.027273,0.062158
791.714962,0.045455,0.165457
791.748359,-0.070455,0.081335
791.781755,0.165909,0.062521
791.815152,0.093182,0.032201
791.848548,-0.054545,0.120089
791.881943,0.206818,0.102921
791.915339,-0.070455,0.020423
791.948734,0.136364,0.050820
791.982129,-0.025000,0.038753
792.015523,0.031061,0.018568
792.048918,0.090909,0.101639
792.082312,0.118182,0.039886
792.115705,-0.095455,0.116841
792.149099,-0.140909,0.051975
792.182492,0.372727,0.116154
792.215885,-0.068182,0.019682
792.249278,0.159091,0.171210
792.282670,-0.022727,0.019682
792.316062,0.181818,0.111340
792.349454,-0.070455,0.067449
792.382845,0.134091,0.146423
792.416236,0.295455,0.206743
792.449627,0.155303,0.214032
792.483018,0.670455,0.230306
792.516408,0.522727,0.351171
792.549798,2.050000,0.530880
792.583188,2.298485,0.347088
792.616578,1.894697,0.411463
792.649967,0.652273,0.211214
792.683356,0.070455,0.067449
792.716745,0.140909,0.099664
792.750133,-0.306818,0.144970
792.783521,0.665909,0.603137
792.816909,-0.047727,0.183385
792.850296,0.434091,0.231782
792.883684,-0.248485,0.037483
792.917071,-0.163636,0.050206
792.950457,0.386364,0.117546
792.983844,0.097727,0.197175
793.017230,0.615909,0.153485
793.050616,0.155303,0.092842
793.084001,-0.090909,0.032141
793.117386,0.062121,0.092793
793.150771,0.188636,0.087041
793.184156,-0.004545,0.074793
793.217541,0.400000,0.221658
793.250925,0.047727,0.023918
793.284309,0.454545,0.343174
793.317692,0.310606,0.325207
793.351075,0.093182,0.111358
793.384458,0.304545,0.069939
793.417841,0.277273,0.053926
793.451223,0.390909,0.260998
793.484606,0.279545,0.032679
793.517988,0.090909,0.115887
793.551369,0.368182,0.214686
793.584750,0.384091,0.336952
793.618131,0.654545,0.678203
793.651512,-0.002273,0.124912
793.684893,0.084091,0.316935
793.718273,0.706818,0.250421
793.751653,0.643182,0.321145
793.785032,0.093182,0.085060
793.818411,-0.095455,0.057631
793.851790,0.345455,0.330977
793.885169,0.000000,0.032141
793.918548,0.115909,0.037397
793.951926,0.031061,0.049101
793.985304,0.186364,0.055809
794.018681,-0.093182,0.032201
794.052059,0.202273,0.180975
794.085436,-0.097727,0.114243
794.118812,0.040909,0.096504
794.152189,0.259091,0.078302
794.185565,0.186364,0.096504
794.218941,0.154545,0.179358
794.252317,-0.022727,0.074516
794.285692,-0.217424,0.037397
794.319067,0.259091,0.063758
794.352442,0.777273,0.365358
794.385816,1.056061,0.184119
794.419190,2.050000,0.095427
794.452564,3.320455,0.280668
794.485938,3.586364,0.391035
794.519311,1.143182,0.244112
794.552684,0.372727,0.200876
794.586057,-0.259091,0.063758
794.619429,0.843182,0.330217
794.652802,0.088636,0.216097
794.686173,0.496970,0.158896
794.719545,0.454545,0.167011
794.752916,0.897727,0.344817
794.786287,0.277273,0.210310
794.819658,0.352273,0.170360
794.853029,-0.050000,0.123712
794.886399,0.131818,0.218501
794.919769,-0.031061,0.018568
794.953138,0.295455,0.130063
794.986508,0.163636,0.021320
795.019877,0.186364,0.032381
795.053245,0.043182,0.118765
795.086614,0.070455,0.093175
795.119982,0.248485,0.098333
795.153350,-0.020455,0.039414
795.186718,-0.050000,0.095427
795.220085,-0.248485,0.067113
795.253452,0.084091,0.137246
795.286819,0.040909,0.150807
795.320185,0.297727,0.065506
795.353551,-0.629545,0.053142
795.386917,0.295455,0.206743
795.420283,-0.279545,0.064553
795.453648,0.155303,0.161807
795.487013,0.209091,0.158571
795.520378,0.124242,0.112907
795.553742,-0.093182,0.064313
795.587107,0.206818,0.125531
795.620471,0.045455,0.050820
795.653834,0.304545,0.062117
795.687197,0.059091,0.251719
795.720560,0.279545,0.140225
795.753923,-0.072727,0.076331
795.787286,-0.124242,0.018741
795.820648,0.118182,0.068484
795.854010,0.134091,0.197489
795.887371,0.184091,0.146952
795.920733,0.045455,0.039365
795.954094,0.159091,0.113067
795.987454,0.420455,0.115188
796.020815,-0.124242,0.066959
796.054175,-0.259091,0.055064
796.087535,-0.004545,0.098622
796.120894,0.247727,0.246366
796.154254,0.372727,0.056224
796.187613,0.225000,0.163427
796.220971,0.124242,0.049167
796.254330,0.579545,0.166527
796.287688,2.578030,0.092059
796.321046,5.373485,0.197619
796.354403,9.287121,1.265231
796.387761,6.881818,0.492023
796.421118,0.931818,0.037689
796.454474,0.095455,0.073399
796.487831,0.279545,0.064553
796.521187,0.124242,0.066959
796.554543,0.062121,0.177025
796.587898,-0.000000,0.085038
796.621254,-0.095455,0.057631
796.654609,0.188636,0.037119
796.687963,-0.124242,0.018741
796.721318,0.820455,0.247307
796.754672,0.186364,0.055809
796.788026,-0.025000,0.148872
796.821379,0.600000,0.174749
796.854732,0.981818,0.375984
796.888085,0.454545,0.229534
796.921438,0.181818,0.064282
796.954790,0.477273,0.289940
796.988142,0.243182,0.310181
797.021494,0.031061,0.018568
797.054846,0.181818,0.157459
797.088197,0.124242,0.066959
797.121548,-0.002273,0.072612
797.154899,0.177273,0.146639
797.188249,0.020455,0.060163
797.221599,0.124242,0.049167
797.254949,0.043182,0.052359
797.288298,0.277273,0.083906
797.321648,0.245455,0.182782
797.354996,-0.248485,0.037483
797.388345,0.093182,0.055705
797.421693,0.217424,0.112970
797.455041,-0.050000,0.153523
797.488389,0.681818,0.245833
797.521737,0.155303,0.103372
797.555084,0.863636,0.445941
797.588431,0.025000,0.059732
797.621777,0.155303,0.037258
797.655124,0.559091,0.195864
797.688470,0.315909,0.175909
797.721815,0.000000,0.147290
797.755161,0.340909,0.130063
797.788506,0.445455,0.193542
797.821851,0.115909,0.218829
797.855196,0.250000,0.121861
797.888540,0.186364,0.170121
797.921884,-0.124242,0.129924
797.955228,-0.095455,0.148042
797.988571,0.070455,0.098563
798.021914,0.070455,0.020423
798.055257,0.890909,0.261196
798.088599,0.831818,0.155262
798.121942,0.636364,0.398862
798.155284,1.106818,0.197306
798.188625,3.385606,0.746399
798.221967,4.628030,0.371483
798.255308,9.670455,0.570761
798.288649,7.772727,0.743081
798.321989,2.671212,0.247748
798.355329,0.310606,0.081153
798.388669,0.997727,0.745651
798.422009,0.254545,0.148129
798.455348,0.217424,0.165000
798.488687,0.579545,0.123832
798.522026,0.634091,0.327468
798.555365,0.186364,0.231807
798.588703,-0.077273,0.139120
798.622041,0.315909,0.124290
798.655378,0.250000,0.148599
798.688716,0.438636,0.166651
798.722053,0.062121,0.066920
798.755389,0.729545,0.265635
798.788726,1.254545,0.386016
798.822062,0.163636,0.122137
798.855398,0.140909,0.051975
798.888733,0.062121,0.049114
798.922069,0.022727,0.113067
798.955404,0.679545,0.251758
798.988738,-0.090909,0.055670
799.022073,-0.155303,0.074299
799.055407,0.140909,0.069048
799.088741,0.320455,0.121346
799.122074,0.136364,0.152459
799.155408,0.310606,0.269632
799.188741,0.461364,0.318885
799.222073,0.536364,0.214794
799.255406,0.247727,0.131558
799.288738,-0.093182,0.055705
799.322069,0.511364,0.103372
799.355401,0.977273,0.404488
799.388732,-0.186364,0.085129
799.422063,-0.011364,0.239649
799.455394,0.000000,0.032141
799.488724,-0.124242,0.080930
799.522054,0.304545,0.172293
799.555384,-0.062121,0.080898
799.588713,0.409091,0.342421
799.622042,0.227273,0.250000
799.655371,0.211364,0.041082
799.688700,0.272727,0.210764
799.722028,0.340909,0.177142
799.755356,0.093182,0.064313
799.788684,0.403788,0.103671
799.822011,0.065909,0.094003
799.855338,-0.124242,0.018741
799.888665,0.050000,0.077506
799.921992,0.528030,0.130375
799.955318,0.459091,0.081407
799.988644,0.352273,0.056533
800.021969,0.929545,0.081335
800.055295,2.827273,0.351296
800.088620,6.536364,0.883422
800.121945,12.168182,1.185543
800.155269,22.067424,0.668919
800.188593,21.556061,2.265902
800.221917,6.833333,0.840909
800.255241,1.727273,0.486385
800.288564,1.075000,0.405010
800.321887,0.765909,0.052654
800.355210,0.559091,0.326411
800.388532,-0.004545,0.098622
800.421854,0.443182,0.114062
800.455176,0.575000,0.155591
800.488498,0.295455,0.117546
800.521819,0.327273,0.178261
800.555140,-0.022727,0.067228
800.588461,0.486364,0.071401
800.621781,0.654545,0.236276
800.655101,0.604545,0.204128
800.688421,0.709091,0.230074
800.721740,0.202273,0.235540
800.755060,0.206818,0.125531
800.788379,0.000000,0.115887
800.821697,0.365909,0.114559
800.855015,0.545455,0.432416
800.888334,0.020455,0.152472
800.921651,0.143182,0.136302
800.954969,0.347727,0.097403
800.988286,0.529545,0.228596
801.021603,0.452273,0.348556
801.054919,0.302273,0.121686
801.088235,0.000000,0.064282
801.121551,0.886364,0.444636
801.154867,0.181818,0.111340
801.188183,0.155303,0.049206
801.221498,0.559091,0.358104
801.254812,0.118182,0.039886
801.288127,0.231818,0.081407
801.321441,0.484091,0.110098
801.354755,0.310606,0.103528
801.388069,0.688636,0.278692
801.421382,0.590152,0.177458
801.454695,0.229545,0.103422
801.488008,0.554545,0.188129
801.521320,0.929545,0.193926
801.554632,-0.070455,0.103671
801.587944,0.229545,0.074369
801.621256,0.502273,0.280300
801.654567,0.528030,0.185902
801.687878,0.062121,0.232519
801.721189,0.343182,0.225227
801.754499,0.093182,0.055705
801.787809,0.586364,0.244812
801.821119,0.488636,0.358405
801.854428,-0.122727,0.145650
801.887737,0.540909,0.177258
801.921046,1.168182,0.092793
801.954355,1.779545,0.455549
801.987663,6.995455,0.426662
802.020971,11.275000,0.411488
802.054279,25.579545,1.124871
802.087586,35.284848,1.679372
802.120894,18.077273,2.426212
802.154200,3.571970,0.673313
802.187507,1.801515,0.272225
802.220813,1.734091,0.365808
802.254119,1.318182,0.575409
802.287425,0.915909,0.442142
802.320730,0.018182,0.105822
802.354035,0.155303,0.066988
802.387340,0.538636,0.232738
802.420644,0.086364,0.142350
802.453949,0.265909,0.166496
802.487252,-0.124242,0.121713
802.520556,0.248485,0.121798
802.553859,0.181818,0.111340
802.587162,0.138636,0.098824
802.620465,0.554545,0.112540
802.653767,0.522727,0.375344
802.687069,0.234091,0.131283
802.720371,0.304545,0.131485
802.753673,0.341667,0.049624
802.786974,0.004545,0.145224
802.820275,0.217424,0.067065
802.853576,0.529545,0.082471
802.886876,0.372727,0.116154
802.920176,0.403788,0.243519
802.953476,0.325000,0.158713
802.986775,0.809091,0.175633
803.020074,0.570455,0.238049
803.053373,1.025000,0.180260
803.086672,0.093182,0.032201
803.119970,-0.095455,0.148042
803.153268,0.368182,0.109540
803.186565,0.295455,0.255871
803.219863,0.109091,0.205905
803.253160,0.062121,0.066920
803.286457,0.186364,0.115954
803.319753,-0.113636,0.049533
803.353049,0.434848,0.130222
803.386345,0.588636,0.339016
803.419641,0.984091,0.308428
803.452936,0.229545,0.171146
803.486231,0.217424,0.049311
803.519525,0.447727,0.320501
803.552820,0.088636,0.065899
803.586114,0.436364,0.197714
803.619408,0.445455,0.086603
803.652701,1.004545,0.301879
803.685994,0.496970,0.334701
803.719287,0.155303,0.066988
803.752580,0.248485,0.019285
803.785872,0.659091,0.279046
803.819164,1.393182,0.407869
803.852456,2.463636,0.538459
803.885747,3.550000,0.315271
803.919038,10.947727,0.980799
803.952329,15.370455,0.330967
803.985620,35.850000,1.649172
804.018910,57.409091,2.112659
804.052200,27.426515,2.292461
804.085489,8.404545,1.831828
804.118779,2.236364,0.324865
804.152068,1.242424,0.420301
804.185357,0.093182,0.111358
804.218645,0.310606,0.074516
804.251933,0.525000,0.347517
804.285221,1.231818,0.419581
804.318508,0.309091,0.170561
804.351796,0.279545,0.032679
804.385083,0.479545,0.308210
804.418369,0.793182,0.548527
804.451656,0.279545,0.200809
804.484942,0.900758,0.209988
804.518227,1.370455,0.476117
804.551513,1.688636,0.278692
804.584798,0.490909,0.213104
804.618083,0.375000,0.149357
804.651367,0.513636,0.106285
804.684652,-0.217424,0.177080
804.717936,0.679545,0.121346
804.751219,1.138636,0.228302
804.784503,0.434848,0.206843
804.817786,0.095455,0.047835
804.851068,0.213636,0.111965
804.884351,0.403788,0.081335
804.917633,0.600000,0.212132
804.950915,0.456818,0.448371
804.984196,1.118182,0.557944
805.017478,0.186364,0.003936
805.050759,0.868182,0.284254
805.084039,1.172727,0.405871
805.117320,0.372727,0.160899
805.150600,0.465909,0.140446
805.183879,0.568182,0.245570
805.217159,0.750000,0.168166
805.250438,1.335606,0.107102
805.283717,0.795455,0.209227
805.316995,0.186364,0.242693
805.350274,0.528030,0.050347
805.383552,0.397727,0.100842
805.416829,0.843182,0.239778
805.450107,0.838636,0.086863
805.483384,1.118182,0.149171
805.516660,0.711364,0.217954
805.549937,1.552273,0.234287
805.583213,0.372727,0.085401
805.616489,0.438636,0.212919
805.649764,1.856818,0.706364
805.683040,0.715909,0.240724
805.716315,1.418182,0.541615
805.749589,1.242424,0.124482
805.782864,2.034091,0.356237
805.816138,5.754545,0.206155
805.849411,19.311364,1.641370
805.882685,48.206061,1.459140
805.915958,84.526515,3.313107
805.949231,137.634091,2.628575
805.982504,72.961364,7.011066
806.015776,19.164394,2.733129
806.049048,8.027273,1.160979
806.082319,3.138636,0.679126
806.115591,1.987879,0.276564
806.148862,1.459848,0.372414
806.182133,0.310606,0.259877
806.215403,1.122727,0.211095
806.248673,0.606818,0.291111
806.281943,0.683333,0.152578
806.315213,0.372727,0.147500
806.348482,0.334091,0.482583
806.381751,0.918182,0.358861
806.415019,0.248485,0.182838
806.448288,0.683333,0.149154
806.481556,0.496970,0.152256
806.514823,1.229545,0.245526
806.548091,1.022727,0.307239
806.581358,0.729545,0.303737
806.614625,0.754545,0.289521
806.647891,1.525000,0.509115
806.681158,0.838636,0.275185
806.714424,0.254545,0.066183
806.747689,0.217424,0.145006
806.780955,1.056061,0.163305
806.814220,0.465909,0.009841
806.847484,0.445455,0.121373
806.880749,1.115909,0.365554
806.914013,0.656818,0.289456
806.947277,0.403788,0.249801
806.980540,1.015909,0.706145
807.013803,1.200000,0.500248
807.047066,1.211364,0.558216
807.080329,0.881818,0.060473
807.113591,0.956818,0.146070
807.146853,0.911364,0.158126
807.180115,0.729545,0.218711
807.213376,0.022727,0.037689
807.246637,1.879545,0.480222
807.279898,0.590152,0.219136
807.313159,1.113636,0.388862
807.346419,1.318182,0.417217
807.379679,0.621212,0.081944
807.412938,0.217424,0.074369
807.446198,1.384091,0.668046
807.479457,1.229545,0.336108
807.512715,0.993939,0.250537
807.545974,1.025000,0.180260
807.579232,1.087121,0.215235
807.612490,1.304545,0.456513
807.645747,1.675000,0.241346
807.679004,2.645455,0.552474
807.712261,3.540909,0.369855
807.745518,5.761364,0.649494
807.778774,20.220455,1.256217
807.812030,58.634091,2.226044
807.845285,123.838636,2.172020
807.878541,254.270455,6.119464
807.911796,218.449242,10.642770
807.945051,71.625758,4.487933
807.978305,19.257576,1.974659
808.011559,9.318182,0.790243
808.044813,4.379545,0.919982
808.078066,2.360606,0.537576
808.111320,2.100000,0.463837
808.144573,0.714394,0.183385
808.177825,0.534091,0.140446
808.211078,2.018939,0.208531
808.244330,0.341667,0.209248
808.277581,1.443182,0.309281
808.310833,1.686364,0.772202
808.344084,1.375000,0.500097
808.377335,0.127273,0.233461
808.410585,2.006818,0.489491
808.443835,0.031061,0.269553
808.477085,0.938636,0.545013
808.510335,0.776515,0.361633
808.543584,1.586364,0.381676
808.576833,0.934091,0.051363
808.610082,1.050000,0.364792
808.643330,0.772727,0.367170
808.676578,1.025000,0.038753
808.709826,1.397727,0.308026
808.743073,1.125000,0.342939
808.776320,1.165909,0.166341
808.809567,1.440909,0.179344
808.842814,2.112121,0.301956
808.876060,1.863636,0.613636
808.909306,1.056061,0.370413
808.942552,1.134091,0.200087
808.975797,0.590152,0.050654
809.009042,1.515909,0.334074
809.042287,1.584091,0.244957
809.075531,2.661364,0.454266
809.108775,1.827273,0.423313
809.142019,1.615152,0.098857
809.175262,2.298485,0.114158
809.208506,1.770455,0.340687
809.241748,1.801515,0.382649
809.274991,1.273485,0.167115
809.308233,2.393182,0.425229
809.341475,1.646212,0.478358
809.374717,1.565909,0.508201
809.407958,1.959091,0.557643
809.441199,2.391667,0.262702
809.474440,1.180303,0.153926
809.507680,1.025000,0.358564
809.540921,0.962879,0.520979
809.574160,0.279545,0.425229
809.607400,2.236364,0.310225
809.640639,5.025000,0.087751
809.673878,5.839394,0.329444
809.707117,11.268939,1.486919
809.740355,32.924242,2.279195
809.773593,84.606818,1.940551
809.806831,169.300758,3.229129
809.840068,369.621212,10.130425
809.873305,238.110606,13.978615
809.906542,60.506061,5.598614
809.939778,22.300000,1.881988
809.973015,10.561364,0.860511
810.006250,6.154545,0.730914
810.039486,5.031818,0.541591
810.072721,5.800000,0.679420
810.105956,3.195455,0.860242
810.139191,3.113636,0.538185
810.172425,3.256818,0.757799
810.205659,1.490909,0.411558
810.238893,2.640152,0.211605
810.272126,2.772727,0.459631
810.305359,3.393182,0.975810
810.338592,3.529545,0.575753
810.371825,3.556818,0.687922
810.405057,1.275000,0.341369
810.438289,2.875000,0.521583
810.471520,1.956818,0.283233
810.504751,2.329545,0.365540
810.537982,2.113636,0.408301
810.571213,1.118182,0.171708
810.604443,1.961364,0.616813
810.637673,1.988636,0.239649
810.670903,1.087121,0.427422
810.704133,1.584091,0.253251
810.737362,2.484091,0.891902
810.770591,1.440909,0.418003
810.803819,1.845455,0.376395
810.837047,1.211364,0.131086
810.870275,2.112121,0.241081
810.903503,1.965909,0.434018
810.936730,1.739394,0.469790
810.969957,1.952273,0.365978
811.003184,2.143182,0.381634
811.036410,1.204545,0.399347
811.069636,1.832576,0.248516
811.102862,2.870455,0.545344
811.136087,2.578030,0.308629
811.169312,2.015909,0.161935
811.202537,1.361364,0.267958
811.235762,2.175000,0.561537
811.268986,3.061364,0.247996
811.302210,1.954545,0.500516
811.335433,2.195455,0.478176
811.368656,2.515909,0.342773
811.401879,3.270455,0.518763
811.435102,5.809091,0.514119
811.468324,6.102273,0.237484
811.501546,5.686364,0.587591
811.534768,5.197727,0.254472
811.567990,5.990909,0.776368
811.601211,7.772727,0.614478
811.634432,10.379545,1.003601
811.667652,19.257576,0.705278
811.700872,43.018182,1.324062
811.734092,104.053030,4.037323
811.767312,178.878030,7.248577
811.800531,344.878788,9.679542
811.833750,285.322727,14.668951
811.866969,84.298485,3.550028
811.900187,33.263636,1.526982
811.933405,13.513636,1.265538
811.966623,5.246212,0.080953
811.999840,8.168939,0.215978
812.033057,4.629545,0.313329
812.066274,5.020455,0.719708
812.099490,4.410606,0.338224
812.132707,4.131818,0.418349
812.165923,2.515909,0.256594
812.199138,1.428788,0.469322
812.232353,2.915909,0.253557
812.265568,3.720455,0.689602
812.298783,3.665152,0.666599
812.331997,2.298485,0.512866
812.365211,2.397727,0.633797
812.398425,3.840909,0.653483
812.431638,2.174242,0.500387
812.464851,1.568182,0.230377
812.498064,1.708333,0.138594
812.531277,1.770455,0.092897
812.564489,2.184091,0.438116
812.597701,1.829545,0.227486
812.630912,2.143182,0.136302
812.664123,1.490909,0.308221
