#{
#    "background_file": "Backgrounds\\\\bg_787.999nm_13bin_219st_244en_10.0s_110g_4x_5_seq.txt",
#    "ccd_image_settings": [
#        1,
#        13,
#        1,
#        1600,
#        219,
#        244
#    ],
#    "ccd_temperature": "-87",
#    "cdRatios": {
#        "mean": 0.9425373388403843,
#        "std": 0.006629714637006426
#    },
#    "center_lambda": 786.0,
#    "comments": "",
#    "dark_region": 8.9620432862229,
#    "date": "10/22/20 15:29:10PM",
#    "eff_field": 1.5,
#    "exposure": 10.0,
#    "fel_lambda": "15.0",
#    "fel_pol": "H",
#    "fel_pulses": 43,
#    "fel_pyro_cal": "0.012",
#    "fel_reprate": "1.07",
#    "fel_transmission": "1.0",
#    "fel_transmission_fits": {
#        "A": 1.0,
#        "C": 0.0,
#        "Mu": 0.0
#    },
#    "fieldInt": {
#        "mean": 5578.703104166667,
#        "std": 282.7750939497336
#    },
#    "fieldStrength": {
#        "mean": 34.2579071969697,
#        "std": 0.8758138365517543
#    },
#    "fpTime": {
#        "mean": 1.1510356192493894,
#        "std": 0.06204533288984158
#    },
#    "gain": 110,
#    "grating": 3,
#    "images_in_sequence": [
#        "hsg_820nm_c123_a45_HAna293.txt",
#        "hsg_820nm_c123_a45_HAna294.txt",
#        "hsg_820nm_c123_a45_HAna295.txt",
#        "hsg_820nm_c123_a45_HAna296.txt"
#    ],
#    "nir_lambda": "819.98",
#    "nir_pola": "45",
#    "nir_polg": "0",
#    "nir_power": "100.0",
#    "pulseEnergies": {
#        "mean": 1.7099734848484849,
#        "std": 0.09498656347209014
#    },
#    "pyroVoltage": {
#        "mean": 0.15125400550276188,
#        "std": 0.00919792838835266
#    },
#    "rotatorAngle": 135.0,
#    "sample_Temp": "55",
#    "sample_name": "L001218.C1",
#    "series": "820_Fan",
#    "slits": "60",
#    "spec_step": "",
#    "window_trans": 0.92,
#    "y_max": 2,
#    "y_min": 1
#}
#
#
#
#
#
#
#
#
#
#
#
#
#
#
#
#
#
#
#
#
#
#
#
#
#
#
Wavelength,Signal,error
nm,arb. u.,arb.u.
Wavelength,820_Fan,error
759.194366,0.025000,0.059732
759.228015,-0.515909,0.083405
759.261663,-0.031061,0.037119
759.295311,0.047727,0.068588
759.328959,0.379545,0.252229
759.362607,0.229545,0.067065
759.396254,0.368182,0.094339
759.429901,0.111364,0.104663
759.463548,-0.217424,0.049311
759.497194,-0.093182,0.085060
759.530841,-0.124242,0.018741
759.564487,0.022727,0.049533
759.598133,0.106818,0.175114
759.631779,-0.072727,0.052223
759.665424,0.245455,0.204141
759.699069,0.395455,0.243373
759.732714,0.124242,0.018741
759.766359,0.088636,0.133313
759.800003,-0.070455,0.081335
759.833648,0.062121,0.018603
759.867292,0.113636,0.081153
759.900935,-0.217424,0.037397
759.934579,0.040909,0.106673
759.968222,0.159091,0.059047
760.001865,-0.310606,0.019682
760.035508,0.043182,0.069337
760.069151,-0.590152,0.068059
760.102793,0.186364,0.147342
760.136435,0.368182,0.264292
760.170077,0.350000,0.068446
760.203718,0.025000,0.067831
760.237360,0.227273,0.122390
760.271001,-0.159091,0.168166
760.304642,0.000000,0.055670
760.338283,-0.031061,0.018568
760.371923,0.217424,0.019117
760.405563,-0.188636,0.037119
760.439203,0.062121,0.066920
760.472843,0.259091,0.101309
760.506482,0.310606,0.133975
760.540122,0.254545,0.225539
760.573761,0.093182,0.032201
760.607399,-0.002273,0.033767
760.641038,-0.000000,0.085038
760.674676,-0.093182,0.195517
760.708314,0.084091,0.185290
760.741952,-0.124242,0.018741
760.775589,-0.163636,0.050206
760.809227,-0.031061,0.018568
760.842864,0.155303,0.037258
760.876501,0.088636,0.161360
760.910137,-0.304545,0.042336
760.943774,0.062121,0.018603
760.977410,0.304545,0.089391
761.011046,0.047727,0.082282
761.044681,0.045455,0.081944
761.078317,-0.155303,0.018844
761.111952,0.222727,0.255952
761.145587,0.155303,0.066988
761.179221,-0.031061,0.018568
761.212856,0.090909,0.106600
761.246490,-0.025000,0.113426
761.280124,0.093182,0.032201
761.313758,0.113636,0.155395
761.347391,-0.400000,0.099378
761.381024,0.154545,0.206155
761.414657,-0.279545,0.096604
761.448290,-0.150000,0.214011
761.481923,-0.155303,0.037258
761.515555,-0.422727,0.051174
761.549187,-0.209091,0.098228
761.582819,-0.031061,0.112878
761.616450,0.131818,0.206343
761.650082,0.118182,0.118269
761.683713,0.297727,0.102418
761.717344,-0.215909,0.250709
761.750974,0.043182,0.041333
761.784605,-0.372727,0.033091
761.818235,0.310606,0.165066
761.851865,0.155303,0.018844
761.885494,-0.050000,0.070528
761.919124,-0.143182,0.055519
761.952753,0.277273,0.274266
761.986382,0.547727,0.447102
762.020010,-0.652273,0.034970
762.053639,-0.310606,0.049533
762.087267,-0.286364,0.124212
762.120895,-0.118182,0.039886
762.154523,0.031061,0.018568
762.188150,0.217424,0.103422
762.221777,0.124242,0.037206
762.255404,0.297727,0.176495
762.289031,0.018182,0.084060
762.322658,0.000000,0.055670
762.356284,-0.047727,0.023918
762.389910,0.252273,0.086266
762.423536,-0.138636,0.067831
762.457161,0.179545,0.263683
762.490786,0.018182,0.089995
762.524411,-0.093182,0.032201
762.558036,0.275000,0.131754
762.591661,-0.093182,0.085060
762.625285,-0.122727,0.138375
762.658909,0.124242,0.018741
762.692533,-0.165909,0.062521
762.726157,-0.050000,0.123712
762.759780,0.304545,0.169269
762.793403,0.252273,0.080055
762.827026,0.113636,0.037689
762.860649,0.325000,0.019911
762.894271,0.018182,0.084060
762.927893,-0.047727,0.023918
762.961515,-0.075000,0.132848
762.995137,0.020455,0.060163
763.028758,0.062121,0.018603
763.062379,-0.004545,0.087522
763.096000,0.209091,0.214023
763.129621,0.175000,0.159200
763.163241,-0.097727,0.076289
763.196862,0.022727,0.019682
763.230481,-0.115909,0.067065
763.264101,0.043182,0.094551
763.297721,0.250000,0.087286
763.331340,-0.124242,0.049167
763.364959,-0.009091,0.194607
763.398578,-0.155303,0.018844
763.432196,0.000000,0.000000
763.465814,-0.590152,0.039151
763.499432,-0.062121,0.074239
763.533050,0.138636,0.021651
763.566668,-0.231818,0.081407
763.600285,-0.155303,0.074299
763.633902,-0.496970,0.050206
763.667519,-0.093182,0.032201
763.701135,-0.070455,0.067449
763.734752,0.040909,0.106673
763.768368,0.290909,0.364261
763.801984,-0.155303,0.049206
763.835599,-0.217424,0.019117
763.869215,-0.403788,0.093175
763.902830,-0.281818,0.038836
763.936444,0.156818,0.118765
763.970059,-0.031061,0.018568
764.003673,-0.186364,0.032381
764.037288,-0.124242,0.049167
764.070901,-0.341667,0.019911
764.104515,0.179545,0.211507
764.138128,-0.050000,0.077506
764.171742,-0.403788,0.049832
764.205354,0.063636,0.143524
764.238967,0.013636,0.190516
764.272580,0.045455,0.039365
764.306192,0.000000,0.032141
764.339804,-0.062121,0.080898
764.373415,-0.070455,0.020423
764.407027,-0.403788,0.038081
764.440638,0.118182,0.088257
764.474249,-0.377273,0.121692
764.507860,-0.118182,0.088257
764.541470,0.270455,0.317212
764.575080,-0.188636,0.108205
764.608690,0.338636,0.289010
764.642300,0.062121,0.092793
764.675909,0.020455,0.075404
764.709519,0.065909,0.051363
764.743128,-0.002273,0.033767
764.776736,0.115909,0.019117
764.810345,0.159091,0.087286
764.843953,0.295455,0.234818
764.877561,0.070455,0.067449
764.911169,0.252273,0.092059
764.944776,0.043182,0.052359
764.978384,0.161364,0.036699
765.011991,0.020455,0.075404
765.045598,-0.029545,0.102821
765.079204,-0.062121,0.018603
765.112810,0.068182,0.130063
765.146416,-0.093182,0.032201
765.180022,-0.025000,0.087751
765.213628,-0.047727,0.051363
765.247233,-0.093182,0.055705
765.280838,0.065909,0.051363
765.314443,0.022727,0.067228
765.348048,-0.372727,0.064763
765.381652,-0.675000,0.049624
765.415256,0.752273,0.327231
765.448860,0.000000,0.032141
765.482463,-0.209091,0.080930
765.516067,0.109091,0.091136
765.549670,-0.186364,0.055809
765.583273,-0.140909,0.040846
765.616875,-0.070455,0.020423
765.650478,-0.045455,0.039365
765.684080,-0.155303,0.066988
765.717682,-0.031061,0.037119
765.751283,-0.395455,0.103328
765.784885,-0.186364,0.085129
765.818486,0.043182,0.123037
765.852087,0.070455,0.098563
765.885687,0.020455,0.118111
765.919288,0.000000,0.032141
765.952888,0.620455,0.295076
765.986488,0.372727,0.033091
766.020087,0.209091,0.296919
766.053687,-0.259091,0.078302
766.087286,0.184091,0.054770
766.120885,-0.072727,0.076331
766.154484,-0.403788,0.049832
766.188082,-0.434848,0.038233
766.221680,0.068182,0.037689
766.255278,0.043182,0.094551
766.288876,-0.115909,0.019117
766.322473,0.275000,0.083837
766.356070,0.047727,0.051363
766.389667,-0.068182,0.067228
766.423264,0.022727,0.067228
766.456860,0.615909,0.401191
766.490457,0.186364,0.064403
766.524053,0.390909,0.175869
766.557648,-0.217424,0.037397
766.591244,0.186364,0.115954
766.624839,-0.004545,0.074793
766.658434,0.652273,0.251409
766.692029,-0.031061,0.049101
766.725623,0.434091,0.160718
766.759217,0.136364,0.068182
766.792811,0.062121,0.049114
766.826405,0.031061,0.049101
766.859999,0.161364,0.066679
766.893592,-0.279545,0.085242
766.927185,-0.002273,0.056625
766.960777,-0.047727,0.023918
766.994370,-0.186364,0.222716
767.027962,0.068182,0.087286
767.061554,-0.062121,0.049114
767.095146,0.343182,0.085666
767.128737,-0.004545,0.087522
767.162329,0.113636,0.087286
767.195920,-0.217424,0.037397
767.229510,0.252273,0.121133
767.263101,0.184091,0.189888
767.296691,-0.165909,0.062521
767.330281,0.159091,0.093015
767.363871,0.231818,0.049948
767.397460,0.063636,0.101334
767.431050,-0.155303,0.074299
767.464639,-0.310606,0.037689
767.498227,-0.062121,0.037137
767.531816,-0.062121,0.018603
767.565404,0.181818,0.184637
767.598992,0.138636,0.021651
767.632580,-0.155303,0.037258
767.666168,-0.327273,0.053397
767.699755,-0.050000,0.077506
767.733342,0.504545,0.242267
767.766929,0.545455,0.321412
767.800515,-0.120455,0.055052
767.834101,0.000000,0.032141
767.867687,0.231818,0.067535
767.901273,-0.031061,0.066910
767.934859,0.070455,0.098563
767.968444,0.065909,0.068588
768.002029,0.000000,0.032141
768.035614,-0.395455,0.018603
768.069198,0.295455,0.155395
768.102783,0.020455,0.039414
768.136367,0.186364,0.003936
768.169950,0.093182,0.096444
768.203534,0.062121,0.151899
768.237117,-0.118182,0.099274
768.270700,-0.186364,0.055809
768.304283,-0.256818,0.022355
768.337866,0.018182,0.115171
768.371448,0.065909,0.082282
768.405030,-0.029545,0.144577
768.438612,-0.022727,0.019682
768.472193,0.231818,0.049948
768.505775,0.293182,0.184087
768.539356,0.070455,0.038081
768.572936,-0.027273,0.069976
768.606517,-0.115909,0.074369
768.640097,-0.031061,0.037119
768.673677,0.350000,0.099248
768.707257,-0.248485,0.037483
768.740836,-0.279545,0.111497
768.774416,0.570455,0.210405
768.807995,0.000000,0.032141
768.841574,-0.118182,0.039886
768.875152,0.186364,0.064403
768.908730,0.113636,0.037689
768.942308,0.043182,0.069337
768.975886,0.093182,0.032201
769.009464,0.047727,0.051363
769.043041,0.093182,0.055705
769.076618,-0.188636,0.074230
769.110195,0.070455,0.130177
769.143771,-0.140909,0.025206
769.177348,0.000000,0.064282
769.210924,-0.050000,0.053926
769.244499,-0.027273,0.053203
769.278075,-0.488636,0.018844
769.311650,0.015909,0.137810
769.345225,0.138636,0.122195
769.378800,0.270455,0.216575
769.412375,0.156818,0.088920
769.445949,0.113636,0.049533
769.479523,0.390909,0.187248
769.513097,0.093182,0.032201
769.546670,-0.124242,0.018741
769.580243,0.070455,0.067449
769.613816,-0.155303,0.018844
769.647389,0.022727,0.081153
769.680962,0.018182,0.084060
769.714534,0.068182,0.113067
769.748106,0.081818,0.154345
769.781678,0.397727,0.119588
769.815249,0.679545,0.356976
769.848820,-0.138636,0.050347
769.882391,0.136364,0.093707
769.915962,-0.050000,0.070528
769.949533,-0.209091,0.018741
769.983103,0.020455,0.050858
770.016673,0.222727,0.155528
770.050243,-0.034091,0.304654
770.083812,0.031061,0.049101
770.117381,-0.047727,0.023918
770.150950,0.250000,0.191166
770.184519,0.018182,0.089995
770.218088,-0.377273,0.092793
770.251656,-0.341667,0.019911
770.285224,0.434848,0.177258
770.318791,-0.186364,0.115954
770.352359,-0.095455,0.086334
770.385926,-0.077273,0.183894
770.419493,0.063636,0.143524
770.453060,0.159091,0.059047
770.486626,0.320455,0.158289
770.520192,-0.217424,0.049311
770.553758,0.186364,0.167057
770.587324,0.279545,0.032679
770.620890,0.343182,0.271025
770.654455,0.090909,0.096424
770.688020,0.222727,0.185795
770.721584,0.245455,0.245497
770.755149,-0.093182,0.032201
770.788713,-0.256818,0.039151
770.822277,0.686364,0.271617
770.855841,-0.140909,0.051975
770.889404,-0.050000,0.077506
770.922967,0.045455,0.039365
770.956530,-0.062121,0.133821
770.990093,-0.062121,0.066920
771.023655,0.231818,0.038233
771.057217,-0.095455,0.107637
771.090779,0.043182,0.041333
771.124341,-0.025000,0.021651
771.157902,-0.031061,0.092786
771.191463,0.111364,0.082596
771.225024,0.270455,0.289991
771.258585,0.295455,0.234818
771.292145,-0.118182,0.023619
771.325705,-0.155303,0.018844
771.359265,0.070455,0.049832
771.392825,0.111364,0.068963
771.426384,-0.236364,0.073011
771.459943,0.155303,0.074299
771.493502,0.022727,0.019682
771.527061,-0.138636,0.038753
771.560619,-0.004545,0.067535
771.594177,0.431818,0.271541
771.627735,-0.068182,0.067228
771.661293,0.188636,0.179915
771.694850,-0.138636,0.050347
771.728407,-0.062121,0.018603
771.761964,0.113636,0.239177
771.795521,-0.145455,0.099378
771.829077,-0.236364,0.057135
771.862633,0.031061,0.018568
771.896189,0.000000,0.032141
771.929744,0.020455,0.050858
771.963300,0.031061,0.066910
771.996855,0.155303,0.066988
772.030409,0.038636,0.189016
772.063964,0.022727,0.113067
772.097518,-0.327273,0.053397
772.131072,0.134091,0.146423
772.164626,0.000000,0.064282
772.198180,0.440909,0.140597
772.231733,0.070455,0.049832
772.265286,-0.031061,0.066910
772.298839,-0.062121,0.066920
772.332391,-0.138636,0.050347
772.365943,-0.070455,0.049832
772.399495,0.093182,0.147303
772.433047,0.268182,0.181861
772.466598,0.254545,0.116952
772.500150,0.090909,0.032141
772.533701,-0.118182,0.180507
772.567251,0.031061,0.066910
772.600802,0.047727,0.051363
772.634352,0.031061,0.018568
772.667902,-0.338636,0.189480
772.701452,0.113636,0.037689
772.735001,0.045455,0.050820
772.768550,0.093182,0.064313
772.802099,0.047727,0.051363
772.835648,0.020455,0.060163
772.869196,-0.002273,0.033767
772.902744,-0.093182,0.055705
772.936292,0.181818,0.085038
772.969840,-0.025000,0.038753
773.003387,-0.045455,0.050820
773.036934,-0.000000,0.085038
773.070481,0.252273,0.151452
773.104028,0.093182,0.085060
773.137574,-0.072727,0.041161
773.171120,-0.347727,0.057350
773.204666,-0.259091,0.084642
773.238212,-0.155303,0.018844
773.271757,-0.145455,0.109280
773.305302,0.000000,0.064282
773.338847,0.155303,0.066988
773.372391,0.043182,0.052359
773.405936,-0.093182,0.032201
773.439480,-0.155303,0.018844
773.473024,0.181818,0.071870
773.506567,0.252273,0.065899
773.540110,-0.093182,0.055705
773.573653,0.043182,0.094551
773.607196,0.065909,0.109251
773.640739,-0.031061,0.049101
773.674281,-0.115909,0.067065
773.707823,-0.528030,0.103920
773.741365,-0.186364,0.111410
773.774906,-0.236364,0.079772
773.808447,-0.124242,0.018741
773.841988,0.270455,0.223615
773.875529,0.209091,0.066959
773.909070,0.022727,0.049533
773.942610,0.124242,0.018741
773.976150,-0.807576,0.051975
774.009689,-0.186364,0.055809
774.043229,-0.070455,0.081335
774.076768,-0.027273,0.069976
774.110307,-0.168182,0.108211
774.143845,0.068182,0.037689
774.177384,0.022727,0.081153
774.210922,-0.140909,0.040846
774.244460,0.015909,0.158713
774.277997,0.136364,0.068182
774.311535,-0.217424,0.049311
774.345072,-0.140909,0.040846
774.378609,0.113636,0.074516
774.412145,0.409091,0.152459
774.445682,0.000000,0.085038
774.479218,0.227273,0.118094
774.512754,-0.031061,0.037119
774.546289,-0.217424,0.081017
774.579824,-0.236364,0.079772
774.613359,0.068182,0.059047
774.646894,0.181818,0.090909
774.680429,0.248485,0.103453
774.713963,-0.022727,0.074516
774.747497,0.279545,0.032679
774.781031,-0.093182,0.001968
774.814564,0.138636,0.081652
774.848097,0.163636,0.093376
774.881630,-0.193182,0.122785
774.915163,-0.186364,0.032381
774.948696,0.231818,0.067535
774.982228,0.188636,0.080890
775.015760,-0.093182,0.032201
775.049291,0.124242,0.103353
775.082823,-0.209091,0.066959
775.116354,-0.190909,0.063147
775.149885,-0.002273,0.072612
775.183416,-0.025000,0.067831
775.216946,0.275000,0.169478
775.250476,-0.240909,0.114700
775.284006,0.229545,0.182820
775.317535,0.002273,0.085666
775.351065,0.062121,0.037137
775.384594,-0.006818,0.169874
775.418123,-0.070455,0.067449
775.451651,0.181818,0.132522
775.485180,-0.070455,0.038081
775.518708,-0.077273,0.260592
775.552235,0.136364,0.171587
775.585763,-0.093182,0.032201
775.619290,-0.445455,0.137345
775.652817,-0.045455,0.068182
775.686344,0.252273,0.047714
775.719870,0.418182,0.177098
775.753397,-0.163636,0.081565
775.786923,0.118182,0.060473
775.820448,0.090909,0.045455
775.853974,-0.004545,0.171331
775.887499,0.025000,0.067831
775.921024,0.159091,0.067228
775.954549,0.322727,0.102726
775.988073,0.113636,0.148599
776.021597,0.090909,0.160706
776.055121,0.381818,0.194554
776.088645,0.279545,0.032679
776.122168,-0.118182,0.118269
776.155691,0.204545,0.141476
776.189214,0.118182,0.060473
776.222737,-0.143182,0.078623
776.256259,-0.097727,0.061269
776.289781,0.184091,0.146952
776.323303,0.020455,0.126555
776.356824,-0.325000,0.067295
776.390346,0.072727,0.099793
776.423867,0.227273,0.075378
776.457387,-0.302273,0.049101
776.490908,-0.000000,0.085038
776.524428,-0.186364,0.032381
776.557948,-0.045455,0.081944
776.591468,0.155303,0.049206
776.624987,0.020455,0.039414
776.658506,-0.062121,0.018603
776.692025,0.277273,0.189647
776.725544,0.045455,0.081944
776.759062,-0.118182,0.039886
776.792581,-0.284091,0.065031
776.826099,0.124242,0.037206
776.859616,0.047727,0.040064
776.893134,0.159091,0.087286
776.926651,0.031061,0.037119
776.960167,-0.140909,0.104718
776.993684,0.000000,0.000000
777.027200,0.163636,0.021320
777.060716,0.279545,0.055982
777.094232,0.093182,0.085060
777.127748,-0.093182,0.032201
777.161263,-0.155303,0.098248
777.194778,0.390909,0.257009
777.228293,0.248485,0.049376
777.261807,-0.397727,0.119588
777.295322,0.090909,0.055670
777.328836,-0.002273,0.046619
777.362349,-0.075000,0.132848
777.395863,0.197727,0.205763
777.429376,-0.118182,0.060473
777.462889,0.031061,0.049101
777.496401,0.022727,0.049533
777.529914,-0.163636,0.050206
777.563426,0.000000,0.032141
777.596938,0.179545,0.236852
777.630449,0.279545,0.064553
777.663961,0.138636,0.038753
777.697472,-0.140909,0.025206
777.730983,0.113636,0.117546
777.764493,0.031061,0.049101
777.798004,0.434091,0.272734
777.831514,-0.115909,0.037397
777.865023,-0.031818,0.136117
777.898533,-0.124242,0.018741
777.932042,0.186364,0.032381
777.965551,0.156818,0.076424
777.999060,-0.095455,0.086334
778.032568,-0.062121,0.037137
778.066076,0.124242,0.018741
778.099584,0.163636,0.067726
778.133092,0.161364,0.129779
778.166599,-0.002273,0.056625
778.200107,0.022727,0.019682
778.233613,-0.093182,0.055705
778.267120,-0.022727,0.067228
778.300626,0.000000,0.032141
778.334132,-0.248485,0.037483
778.367638,0.022727,0.019682
778.401144,0.031061,0.049101
778.434649,-0.025000,0.038753
778.468154,-0.027273,0.089420
778.501659,0.390909,0.178781
778.535163,-0.031061,0.037119
778.568668,-0.031061,0.037119
778.602172,0.031061,0.018568
778.635675,-0.093182,0.001968
778.669179,-0.279545,0.032679
778.702682,0.068182,0.067228
778.736185,0.015909,0.103571
778.769688,-0.050000,0.043301
778.803190,0.340909,0.261857
778.836692,-0.031061,0.080890
778.870194,-0.054545,0.111155
778.903696,-0.031061,0.037119
778.937197,0.088636,0.097509
778.970698,0.022727,0.037689
779.004199,-0.186364,0.064403
779.037699,0.093182,0.085060
779.071200,-0.093182,0.085060
779.104700,-0.022727,0.067228
779.138199,0.043182,0.135046
779.171699,0.115909,0.074369
779.205198,-0.155303,0.103372
779.238697,-0.022727,0.019682
779.272196,0.113636,0.074516
779.305694,0.136364,0.104149
779.339192,0.000000,0.064282
779.372690,0.465909,0.111775
779.406188,0.000000,0.064282
779.439685,0.209091,0.164957
779.473182,-0.025000,0.038753
779.506679,0.156818,0.088920
779.540176,0.111364,0.088629
779.573672,-0.047727,0.068588
779.607168,0.361364,0.199441
779.640664,0.525000,0.258939
779.674160,-0.062121,0.018603
779.707655,0.209091,0.074273
779.741150,0.554545,0.211400
779.774644,-0.118182,0.068484
779.808139,0.118182,0.202107
779.841633,-0.079545,0.191756
779.875127,0.206818,0.102921
779.908621,0.031061,0.080890
779.942114,0.388636,0.181971
779.975607,0.275000,0.083837
780.009100,0.093182,0.178966
780.042593,0.313636,0.246075
780.076085,0.031061,0.066910
780.109577,-0.140909,0.051975
780.143069,0.217424,0.019117
780.176560,-0.213636,0.072834
780.210052,-0.093182,0.064313
780.243543,-0.025000,0.059732
780.277033,0.186364,0.064403
780.310524,0.211364,0.114243
780.344014,0.209091,0.049167
780.377504,0.340909,0.193849
780.410994,-0.070455,0.038081
780.444483,-0.093182,0.001968
780.477972,0.000000,0.055670
780.511461,0.436364,0.242320
780.544950,-0.004545,0.134129
780.578438,-0.062121,0.049114
780.611926,0.447727,0.193205
780.645414,0.581818,0.269603
780.678902,0.036364,0.209190
780.712389,0.184091,0.044347
780.745876,0.062121,0.037137
780.779363,0.045455,0.093707
780.812849,-0.186364,0.003936
780.846335,0.086364,0.217078
780.879821,-0.072727,0.186419
780.913307,-0.031061,0.018568
780.946792,-0.310606,0.049533
780.980277,0.136364,0.171587
781.013762,-0.062121,0.037137
781.047247,-0.143182,0.096337
781.080731,0.134091,0.200087
781.114215,-0.161364,0.058421
781.147699,-0.304545,0.042336
781.181183,-0.118182,0.088257
781.214666,0.031061,0.018568
781.248149,-0.027273,0.194819
781.281632,-0.027273,0.114722
781.315114,0.140909,0.040846
781.348596,0.031061,0.066910
781.382078,0.181818,0.111340
781.415560,0.043182,0.052359
781.449041,0.124242,0.018741
781.482522,-0.115909,0.019117
781.516003,0.250000,0.108402
781.549484,-0.341667,0.037809
781.582964,-0.045455,0.050820
781.616444,-0.163636,0.038569
781.649924,0.065909,0.051363
781.683404,-0.031061,0.018568
781.716883,-0.002273,0.046619
781.750362,0.322727,0.173726
781.783841,0.206818,0.086565
781.817319,-0.190909,0.077806
781.850797,-0.004545,0.134129
781.884275,0.200000,0.198756
781.917753,0.106818,0.169112
781.951230,0.315909,0.208184
781.984707,0.090909,0.045455
782.018184,-0.155303,0.018844
782.051661,0.113636,0.037689
782.085137,0.320455,0.227849
782.118613,0.186364,0.115954
782.152089,0.217424,0.019117
782.185564,0.140909,0.069048
782.219040,-0.093182,0.032201
782.252515,0.000000,0.032141
782.285989,0.062121,0.018603
782.319464,-0.256818,0.039151
782.352938,0.155303,0.049206
782.386412,0.022727,0.049533
782.419885,0.000000,0.000000
782.453359,-0.095455,0.047835
782.486832,-0.306818,0.074299
782.520305,0.106818,0.118895
782.553777,0.031061,0.066910
782.587249,-0.248485,0.049376
782.620721,0.403788,0.158778
782.654193,-0.070455,0.038081
782.687665,-0.093182,0.055705
782.721136,0.031061,0.049101
782.754607,-0.138636,0.075060
782.788077,0.000000,0.085038
782.821548,0.047727,0.099346
782.855018,0.275000,0.169478
782.888488,-0.155303,0.074299
782.921957,0.000000,0.000000
782.955427,0.065909,0.068588
782.988896,0.088636,0.161360
783.022365,0.138636,0.050347
783.055833,0.062121,0.066920
783.089301,0.159091,0.093015
783.122769,-0.095455,0.161396
783.156237,0.527273,0.221844
783.189704,-0.093182,0.064313
783.223172,0.047727,0.051363
783.256638,0.115909,0.249698
783.290105,0.155303,0.018844
783.323571,0.345455,0.064603
783.357037,-0.022727,0.037689
783.390503,-0.004545,0.201787
783.423969,0.186364,0.085129
783.457434,0.277273,0.160110
783.490899,0.124242,0.049167
783.524364,-0.022727,0.067228
783.557828,-0.070455,0.020423
783.591292,0.062121,0.066920
783.624756,-0.138636,0.050347
783.658220,-0.120455,0.063748
783.691683,-0.047727,0.023918
783.725146,0.000000,0.055670
783.758609,0.000000,0.032141
783.792072,0.062121,0.066920
783.825534,0.113636,0.081153
783.858996,-0.097727,0.127085
783.892458,-0.217424,0.019117
783.925919,0.206818,0.086565
783.959381,0.136364,0.104149
783.992842,0.734091,0.314153
784.026302,-0.209091,0.037206
784.059763,0.061364,0.109156
784.093223,0.018182,0.105822
784.126683,-0.143182,0.045270
784.160142,-0.070455,0.074715
784.193601,-0.029545,0.086446
784.227060,0.124242,0.018741
784.260519,-0.093182,0.055705
784.293978,0.186364,0.003936
784.327436,0.062121,0.037137
784.360894,-0.186364,0.064403
784.394352,0.279545,0.251100
784.427809,-0.118182,0.088257
784.461266,-0.325000,0.067295
784.494723,0.138636,0.098824
784.528180,0.000000,0.064282
784.561636,0.093182,0.055705
784.595092,0.093182,0.055705
784.628548,0.070455,0.020423
784.662003,0.181818,0.200722
784.695458,0.018182,0.105822
784.728913,-0.031061,0.049101
784.762368,0.138636,0.093452
784.795823,-0.115909,0.049311
784.829277,-0.031818,0.124212
784.862731,0.088636,0.073320
784.896184,-0.124242,0.018741
784.929637,-0.256818,0.039151
784.963091,0.109091,0.132677
784.996543,0.403788,0.188523
785.029996,0.293182,0.160074
785.063448,0.206818,0.073671
785.096900,0.809091,0.335349
785.130352,-0.062121,0.018603
785.163803,0.063636,0.169893
785.197254,0.090909,0.045455
785.230705,0.227273,0.113636
785.264156,0.000000,0.140100
785.297606,0.031061,0.080890
785.331056,0.204545,0.204230
785.364506,0.161364,0.036699
785.397955,-0.186364,0.003936
785.431405,0.341667,0.130098
785.464854,0.088636,0.097509
785.498302,0.181818,0.111340
785.531751,-0.031061,0.018568
785.565199,-0.004545,0.108593
785.598647,0.031061,0.080890
785.632094,0.659091,0.286355
785.665542,0.140909,0.076162
785.698989,-0.163636,0.074966
785.732436,0.272727,0.289271
785.765882,-0.163636,0.050206
785.799328,-0.118182,0.039886
785.832774,0.197727,0.376181
785.866220,0.300000,0.047019
785.899665,0.209091,0.164957
785.933111,0.070455,0.038081
785.966555,0.155303,0.018844
786.000000,0.022727,0.049533
786.033444,-0.002273,0.046619
786.066888,-0.172727,0.154345
786.100332,-0.093182,0.055705
786.133776,0.184091,0.078096
786.167219,0.163636,0.021320
786.200662,0.022727,0.103528
786.234104,-0.004545,0.059396
786.267547,-0.115909,0.019117
786.300989,-0.155303,0.037258
786.334431,0.000000,0.085038
786.367872,-0.006818,0.189970
786.401314,0.047727,0.082282
786.434755,0.186364,0.032381
786.468196,0.065909,0.082282
786.501636,0.047727,0.051363
786.535076,0.161364,0.117233
786.568516,0.015909,0.113107
786.601956,0.061364,0.122532
786.635395,0.109091,0.091136
786.668834,0.161364,0.117233
786.702273,0.300000,0.185028
786.735712,0.275000,0.156814
786.769150,-0.025000,0.038753
786.802588,-0.155303,0.049206
786.836026,-0.186364,0.055809
786.869463,-0.140909,0.069048
786.902900,0.465909,0.140446
786.936337,0.159091,0.108402
786.969774,1.581818,0.709120
787.003210,1.138636,0.245736
787.036646,0.113636,0.059047
787.070082,0.043182,0.069337
787.103518,0.045455,0.050820
787.136953,0.045455,0.050820
787.170388,0.068182,0.037689
787.203823,-0.306818,0.074299
787.237257,0.022727,0.019682
787.270691,0.184091,0.071175
787.304125,0.040909,0.147342
787.337559,0.113636,0.049533
787.370992,-0.138636,0.067831
787.404425,-0.215909,0.090017
787.437858,0.206818,0.154992
787.471290,-0.093182,0.085060
787.504723,0.181818,0.238366
787.538155,0.154545,0.198496
787.571586,0.062121,0.018603
787.605018,0.070455,0.038081
787.638449,0.254545,0.066183
787.671880,0.022727,0.049533
787.705310,-0.002273,0.132925
787.738741,0.031061,0.103322
787.772171,0.124242,0.074273
787.805600,0.161364,0.036699
787.839030,-0.140909,0.025206
787.872459,-0.281818,0.098857
787.905888,0.275000,0.200216
787.939317,-0.093182,0.001968
787.972745,-0.155303,0.066988
788.006173,0.031061,0.018568
788.039601,0.270455,0.239239
788.073028,0.022727,0.049533
788.106456,-0.062121,0.018603
788.139883,0.000000,0.000000
788.173309,0.345455,0.064603
788.206736,0.431818,0.193849
788.240162,0.343182,0.218238
788.273588,0.047727,0.040064
788.307013,-0.165909,0.042927
788.340439,0.062121,0.066920
788.373864,-0.310606,0.067228
788.407288,0.277273,0.053926
788.440713,0.045455,0.081944
788.474137,-0.281818,0.059786
788.507561,0.109091,0.101843
788.540985,0.040909,0.106673
788.574408,-0.045455,0.068182
788.607831,0.000000,0.055670
788.641254,0.155303,0.018844
788.674677,-0.095455,0.107637
788.708099,-0.155303,0.074299
788.741521,-0.025000,0.038753
788.774943,0.952273,0.455174
788.808364,0.806818,0.277596
788.841785,1.118182,0.317434
788.875206,-0.047727,0.051363
788.908627,0.231818,0.182993
788.942047,0.702273,0.377921
788.975467,-0.190909,0.110689
789.008887,-0.062121,0.049114
789.042306,-0.397727,0.029524
789.075726,0.040909,0.071978
789.109145,0.000000,0.000000
789.142563,0.062121,0.133821
789.175982,-0.031061,0.018568
789.209400,-0.155303,0.037258
789.242817,-0.093182,0.032201
789.276235,0.062121,0.049114
789.309652,0.040909,0.101716
789.343069,0.347727,0.195992
789.376486,0.252273,0.164530
789.409902,-0.070455,0.038081
789.443319,-0.279545,0.032679
789.476735,0.384091,0.415236
789.510150,-0.070455,0.038081
789.543565,0.031061,0.018568
789.576980,-0.050000,0.095427
789.610395,0.131818,0.225482
789.643810,-0.190909,0.077806
789.677224,-0.168182,0.087049
789.710638,0.375000,0.082533
789.744052,0.084091,0.223222
789.777465,0.597727,0.435373
789.810878,0.065909,0.171749
789.844291,-0.097727,0.076289
789.877703,-0.097727,0.088804
789.911116,-0.118182,0.118269
789.944528,-0.047727,0.023918
789.977939,0.159091,0.067228
790.011351,0.134091,0.172349
790.044762,0.179545,0.086863
790.078173,0.163636,0.081565
790.111583,0.018182,0.127920
790.144994,-0.050000,0.077506
790.178404,0.275000,0.105645
790.211813,0.411364,0.120920
790.245223,-0.155303,0.049206
790.278632,-0.155303,0.018844
790.312041,0.181818,0.096424
790.345450,0.045455,0.081944
790.378858,0.000000,0.032141
790.412266,0.186364,0.085129
790.445674,0.093182,0.032201
790.479081,0.115909,0.049311
790.512488,0.031061,0.018568
790.545895,0.111364,0.104663
790.579302,0.363636,0.181818
790.612708,-0.124242,0.066959
790.646115,0.962879,0.260589
790.679520,0.807576,0.299129
790.712926,0.950000,0.657926
790.746331,-0.125000,0.137660
790.779736,0.247727,0.197489
790.813141,0.490909,0.287408
790.846545,-0.095455,0.107637
790.879949,0.045455,0.022727
790.913353,0.062121,0.066920
790.946757,-0.795455,0.059047
790.980160,-0.395455,0.037137
791.013563,-0.093182,0.032201
791.046966,-0.070455,0.067449
791.080368,0.022727,0.098412
791.113771,0.277273,0.105700
791.147173,0.204545,0.180034
791.180574,0.068182,0.037689
791.213976,-0.217424,0.019117
791.247377,0.000000,0.032141
791.280777,0.115909,0.103422
791.314178,-0.422727,0.060431
791.347578,-0.186364,0.032381
791.380978,-0.186364,0.032381
791.414378,0.177273,0.217554
791.447777,0.345455,0.164015
791.481176,0.111364,0.068963
791.514575,0.062121,0.018603
791.547973,-0.027273,0.142803
791.581372,0.363636,0.292820
791.614770,-0.054545,0.101436
791.648167,-0.070455,0.067449
791.681565,0.272727,0.136364
791.714962,-0.140909,0.025206
791.748359,-0.050000,0.053926
791.781755,0.310606,0.133975
791.815152,0.062121,0.018603
791.848548,-0.115909,0.049311
791.881943,0.031061,0.018568
791.915339,0.088636,0.065899
791.948734,0.310606,0.130063
791.982129,0.248485,0.049376
792.015523,0.570455,0.417655
792.048918,-0.002273,0.056625
792.082312,0.111364,0.104663
792.115705,-0.070455,0.020423
792.149099,-0.143182,0.055519
792.182492,0.065909,0.060591
792.215885,0.047727,0.068588
792.249278,0.206818,0.097774
792.282670,0.161364,0.167947
792.316062,0.115909,0.037397
792.349454,0.068182,0.019682
792.382845,-0.093182,0.032201
792.416236,-0.124242,0.018741
792.449627,-0.093182,0.055705
792.483018,0.002273,0.124912
792.516408,-0.093182,0.064313
792.549798,0.248485,0.074412
792.583188,1.070455,0.158778
792.616578,0.248485,0.112998
792.649967,0.275000,0.131754
792.683356,0.181818,0.160706
792.716745,-0.093182,0.085060
792.750133,-0.420455,0.070738
792.783521,0.090909,0.101639
792.816909,-0.468182,0.135356
792.850296,0.272727,0.210764
792.883684,0.018182,0.131897
792.917071,-0.138636,0.130375
792.950457,-0.031061,0.066910
792.983844,-0.259091,0.055064
793.017230,0.113636,0.074516
793.050616,-0.068182,0.113067
793.084001,-0.347727,0.057350
793.117386,0.140909,0.040846
793.150771,0.124242,0.080930
793.184156,0.018182,0.084060
793.217541,0.031061,0.049101
793.250925,0.090909,0.085038
793.284309,0.134091,0.123456
793.317692,-0.047727,0.099346
793.351075,0.093182,0.032201
793.384458,0.115909,0.037397
793.417841,0.113636,0.037689
793.451223,0.070455,0.067449
793.484606,0.365909,0.194723
793.517988,-0.155303,0.018844
793.551369,0.500000,0.196824
793.584750,0.136364,0.093707
793.618131,-0.306818,0.058773
793.651512,0.225000,0.178532
793.684893,-0.163636,0.050206
793.718273,-0.031061,0.037119
793.751653,-0.004545,0.067535
793.785032,0.000000,0.055670
793.818411,0.022727,0.037689
793.851790,0.254545,0.140982
793.885169,0.361364,0.264074
793.918548,0.138636,0.021651
793.951926,-0.165909,0.062521
793.985304,0.088636,0.057530
794.018681,0.065909,0.082282
794.052059,-0.093182,0.032201
794.085436,-0.045455,0.099066
794.118812,-0.002273,0.056625
794.152189,-0.093182,0.001968
794.185565,0.272727,0.140100
794.218941,-0.331818,0.129106
794.252317,0.068182,0.037689
794.285692,0.040909,0.195547
794.319067,0.181818,0.090909
794.352442,0.231818,0.067535
794.385816,0.807576,0.428353
794.419190,0.738636,0.235299
794.452564,1.304545,0.252539
794.485938,0.931818,0.087286
794.519311,0.827273,0.132755
794.552684,0.534091,0.280373
794.586057,0.588636,0.329747
794.619429,0.711364,0.401423
794.652802,-0.217424,0.067065
794.686173,0.062121,0.049114
794.719545,0.093182,0.055705
794.752916,0.322727,0.073399
794.786287,0.275000,0.169478
794.819658,0.636364,0.457942
794.853029,-0.209091,0.018741
794.886399,-0.155303,0.103372
794.919769,-0.031061,0.103322
794.953138,0.124242,0.037206
794.986508,0.779545,0.591681
795.019877,0.454545,0.292820
795.053245,-0.188636,0.074230
795.086614,0.206818,0.154992
795.119982,0.155303,0.112924
795.153350,0.093182,0.032201
795.186718,-0.124242,0.037206
795.220085,0.331818,0.345477
795.253452,-0.147727,0.125901
795.286819,-0.140909,0.051975
795.320185,0.088636,0.112282
795.353551,-0.590152,0.039151
795.386917,0.090909,0.244780
795.420283,-0.120455,0.090532
795.453648,-0.025000,0.087751
795.487013,0.045455,0.050820
795.520378,0.506818,0.114919
795.553742,0.045455,0.039365
795.587107,0.341667,0.177167
795.620471,-0.025000,0.087751
795.653834,0.155303,0.066988
795.687197,0.229545,0.074369
795.720560,0.161364,0.036699
795.753923,0.270455,0.345281
795.787286,0.068182,0.037689
795.820648,-0.031061,0.049101
795.854010,0.540909,0.299129
795.887371,0.302273,0.066910
795.920733,0.186364,0.055809
795.954094,0.468182,0.156587
795.987454,0.570455,0.386836
796.020815,0.656818,0.598037
796.054175,-0.190909,0.135832
796.087535,0.197727,0.313247
796.120894,0.225000,0.306361
796.154254,0.156818,0.099864
796.187613,0.461364,0.155591
796.220971,0.159091,0.081153
796.254330,0.559091,0.170485
796.287688,1.656818,0.552141
796.321046,2.806818,0.427120
796.354403,3.554545,0.768209
796.387761,2.256818,0.591070
796.421118,0.775000,0.353193
796.454474,0.297727,0.311875
796.487831,0.206818,0.151623
796.521187,-0.075000,0.072469
796.554543,0.277273,0.029016
796.587898,0.465909,0.222898
796.621254,-0.009091,0.241936
796.654609,-0.027273,0.069976
796.687963,-0.022727,0.098412
796.721318,0.372727,0.033091
796.754672,0.220455,0.198610
796.788026,0.045455,0.050820
796.821379,0.136364,0.122390
796.854732,-0.231818,0.067535
796.888085,0.202273,0.156484
796.921438,0.154545,0.120861
796.954790,0.206818,0.057977
796.988142,-0.075000,0.154424
797.021494,0.159091,0.113067
797.054846,-0.093182,0.032201
797.088197,0.161364,0.086863
797.121548,-0.047727,0.104416
797.154899,-0.002273,0.116348
797.188249,0.156818,0.109722
797.221599,0.577273,0.230735
797.254949,0.138636,0.050347
797.288298,0.390909,0.124233
797.321648,0.138636,0.130375
797.354996,0.181818,0.106600
797.388345,0.217424,0.112970
797.421693,0.520455,0.308378
797.455041,-0.404545,0.252293
797.488389,0.481818,0.314492
797.521737,0.220455,0.167578
797.555084,0.217424,0.037397
797.588431,-0.025000,0.087751
797.621777,0.459091,0.193956
797.655124,0.217424,0.103422
797.688470,0.062121,0.018603
797.721815,-0.279545,0.096604
797.755161,0.281818,0.103951
797.788506,0.434091,0.203288
797.821851,-0.062121,0.066920
797.855196,0.248485,0.148547
797.888540,0.234091,0.153080
797.921884,-0.170455,0.116304
797.955228,0.170455,0.452945
797.988571,0.343182,0.151111
798.021914,0.315909,0.147127
798.055257,0.415909,0.308428
798.088599,0.325000,0.081208
798.121942,0.124242,0.158571
798.155284,0.248485,0.182838
798.188625,2.500000,0.277422
798.221967,2.764394,0.250276
798.255308,3.977273,0.871599
798.288649,1.956818,0.123037
798.321989,0.807576,0.094339
798.355329,-0.047727,0.094003
798.388669,0.163636,0.162114
798.422009,-0.000000,0.147290
798.455348,0.134091,0.095095
798.488687,0.672727,0.242149
798.522026,0.031061,0.018568
798.555365,-0.163636,0.103851
798.588703,-0.406818,0.175909
798.622041,0.220455,0.208754
798.655378,0.540909,0.223641
798.688716,0.279545,0.140225
798.722053,0.340909,0.251801
798.755389,0.040909,0.101716
798.788726,0.431818,0.251801
798.822062,0.186364,0.032381
798.855398,-0.093182,0.032201
798.888733,0.268182,0.210801
798.922069,0.231818,0.067535
798.955404,0.250000,0.152035
798.988738,0.186364,0.055809
799.022073,-0.025000,0.021651
799.055407,0.113636,0.049533
799.088741,0.368182,0.104718
799.122074,0.527273,0.230970
799.155408,0.159091,0.223549
799.188741,0.106818,0.169112
799.222073,0.595455,0.127009
799.255406,0.318182,0.254099
799.288738,-0.002273,0.147653
799.322069,0.729545,0.424342
799.355401,0.155303,0.112924
799.388732,-0.325000,0.037809
799.422063,-0.311364,0.161296
799.455394,0.061364,0.226211
799.488724,-0.050000,0.095427
799.522054,0.020455,0.039414
799.555384,0.093182,0.055705
799.588713,0.511364,0.177050
799.622042,0.188636,0.125860
799.655371,0.528030,0.113426
799.688700,0.254545,0.066183
799.722028,0.202273,0.094823
799.755356,0.403788,0.165156
799.788684,0.186364,0.055809
799.822011,0.155303,0.080953
799.855338,0.602273,0.256816
799.888665,-0.155303,0.066988
799.921992,-0.186364,0.085129
799.955318,0.093182,0.128580
799.988644,0.315909,0.163743
800.021969,0.403788,0.188523
800.055295,1.056061,0.229118
800.088620,3.020455,0.637664
800.121945,5.268182,0.356485
800.155269,10.088636,0.975688
800.188593,5.190909,0.266714
800.221917,0.776515,0.104613
800.255241,0.413636,0.227307
800.288564,0.443182,0.197070
800.321887,0.677273,0.213721
800.355210,0.431818,0.251801
800.388532,-0.115909,0.037397
800.421854,-0.155303,0.074299
800.455176,0.181818,0.115887
800.488498,0.290909,0.221378
800.521819,0.159091,0.087286
800.555140,0.234091,0.131283
800.588461,0.115909,0.092897
800.621781,0.504545,0.131799
800.655101,0.155303,0.049206
800.688421,0.159091,0.141476
800.721740,0.043182,0.152979
800.755060,0.090909,0.045455
800.788379,-0.217424,0.019117
800.821697,0.095455,0.125371
800.855015,0.431818,0.348217
800.888334,0.070455,0.020423
800.921651,-0.310606,0.019682
800.954969,0.631818,0.159464
800.988286,0.481818,0.123399
801.021603,0.086364,0.127009
801.054919,0.411364,0.187837
801.088235,0.113636,0.103528
801.121551,0.550000,0.125371
801.154867,-0.186364,0.111410
801.188183,-0.070455,0.049832
801.221498,0.672727,0.328973
801.254812,0.252273,0.107583
801.288127,-0.025000,0.087751
801.321441,0.211364,0.088804
801.354755,0.279545,0.116037
801.388069,0.714394,0.299023
801.421382,0.329545,0.125901
801.454695,0.184091,0.078096
801.488008,0.217424,0.158615
801.521320,-0.155303,0.049206
801.554632,0.013636,0.154596
801.587944,0.340909,0.188445
801.621256,0.018182,0.070711
801.654567,0.272727,0.096424
801.687878,-0.027273,0.095021
801.721189,0.124242,0.129924
801.754499,0.093182,0.055705
801.787809,0.295455,0.171210
801.821119,-0.279545,0.085242
801.854428,0.450000,0.477181
801.887737,1.063636,0.754559
801.921046,0.970455,0.315301
801.954355,0.621212,0.050820
801.987663,3.409091,0.634331
802.020971,3.571970,0.369056
802.054279,10.343182,0.619254
802.087586,14.194697,0.595571
802.120894,5.746212,0.721278
802.154200,2.040909,0.393668
802.187507,1.240909,0.321629
802.220813,0.836364,0.312349
802.254119,0.197727,0.154089
802.287425,0.113636,0.049533
802.320730,0.217424,0.037397
802.354035,-0.062121,0.037137
802.387340,0.272727,0.255113
802.420644,0.131818,0.245233
802.453949,-0.341667,0.019911
802.487252,0.086364,0.142350
802.520556,0.320455,0.080377
802.553859,0.527273,0.217138
802.587162,0.088636,0.086266
802.620465,0.250000,0.108402
802.653767,0.434848,0.122031
802.687069,0.247727,0.233447
802.720371,0.363636,0.309959
802.753673,0.000000,0.055670
802.786974,0.418182,0.165019
802.820275,0.586364,0.484486
802.853576,0.477273,0.261857
802.886876,-0.029545,0.121261
802.920176,0.000000,0.140100
802.953476,-0.050000,0.135661
802.986775,0.956818,0.420981
803.020074,0.155303,0.080953
803.053373,0.515909,0.285196
803.086672,0.409091,0.165457
803.119970,-0.050000,0.095427
803.153268,0.279545,0.294638
803.186565,-0.062121,0.103328
803.219863,0.322727,0.170727
803.253160,0.163636,0.148825
803.286457,0.845455,0.385614
803.319753,0.220455,0.384600
803.353049,0.343182,0.242882
803.386345,0.124242,0.037206
803.419641,0.095455,0.086334
803.452936,0.140909,0.165816
803.486231,0.090909,0.101639
803.519525,0.061364,0.221597
803.552820,0.018182,0.070711
803.586114,0.781818,0.123483
803.619408,0.465909,0.116304
803.652701,0.403788,0.038081
803.685994,0.315909,0.200603
803.719287,0.204545,0.152035
803.752580,0.815909,0.244577
803.785872,0.528030,0.183103
803.819164,0.440909,0.161139
803.852456,0.528030,0.081652
803.885747,1.479545,0.147127
803.919038,4.872727,0.285243
803.952329,7.738636,1.292298
803.985620,18.522727,1.195884
804.018910,21.928788,1.931688
804.052200,9.684091,0.166868
804.085489,1.911364,0.185206
804.118779,0.702273,0.257438
804.152068,0.403788,0.134086
804.185357,-0.279545,0.116037
804.218645,0.217424,0.133893
804.251933,0.656818,0.303567
804.285221,0.702273,0.275092
804.318508,-0.097727,0.094441
804.351796,0.429545,0.220241
804.385083,-0.217424,0.049311
804.418369,0.379545,0.398323
804.451656,0.277273,0.115059
804.484942,0.375000,0.239649
804.518227,0.822727,0.307642
804.551513,0.440909,0.116487
804.584798,0.372727,0.096745
804.618083,-0.124242,0.098228
804.651367,0.434848,0.122031
804.684652,0.248485,0.206706
804.717936,0.225000,0.276216
804.751219,0.184091,0.135999
804.784503,1.025000,0.168408
804.817786,-0.155303,0.103372
804.851068,0.586364,0.532241
804.884351,0.743182,0.305737
804.917633,0.847727,0.177604
804.950915,-0.109091,0.222309
804.984196,0.429545,0.242562
805.017478,0.575000,0.280999
805.050759,0.361364,0.141945
805.084039,0.252273,0.140850
805.117320,0.159091,0.081153
805.150600,0.620455,0.278877
805.183879,1.029545,0.245273
805.217159,0.138636,0.130375
805.250438,0.270455,0.126147
805.283717,0.372727,0.085401
805.316995,0.217424,0.182820
805.350274,0.438636,0.110800
805.383552,0.279545,0.140225
805.416829,-0.031061,0.018568
805.450107,0.897727,0.451231
805.483384,0.252273,0.065899
805.516660,1.000000,0.407826
805.549937,0.340909,0.349697
805.583213,0.777273,0.213721
805.616489,0.427273,0.385346
805.649764,0.440909,0.097144
805.683040,0.452273,0.256333
805.716315,0.031061,0.129899
805.749589,1.056061,0.325905
805.782864,1.645455,0.289021
805.816138,3.159091,0.479298
805.849411,10.259091,0.776684
805.882685,25.221212,0.906280
805.915958,43.827273,1.702896
805.949231,59.325758,1.416540
805.982504,25.283333,1.067173
806.015776,6.926515,1.132290
806.049048,2.484848,0.090909
806.082319,1.579545,0.123832
806.115591,1.987879,0.291122
806.148862,0.621212,0.104149
806.182133,0.155303,0.103372
806.215403,0.776515,0.381106
806.248673,0.434091,0.170087
806.281943,0.714394,0.165625
806.315213,0.827273,0.132755
806.348482,0.031061,0.037119
806.381751,0.627273,0.056224
806.415019,1.165909,0.464086
806.448288,0.418182,0.209190
806.481556,0.647727,0.349282
806.514823,0.347727,0.086147
806.548091,0.413636,0.143794
806.581358,0.683333,0.381026
806.614625,1.087121,0.399953
806.647891,0.838636,0.117233
806.681158,1.025000,0.432958
806.714424,0.375000,0.156121
806.747689,0.652273,0.086147
806.780955,-0.004545,0.214204
806.814220,0.372727,0.085401
806.847484,1.118182,0.256204
806.880749,1.273485,0.136491
806.914013,0.072727,0.099793
806.947277,-0.286364,0.106285
806.980540,-0.004545,0.134129
807.013803,0.145455,0.236538
807.047066,0.279545,0.128700
807.080329,0.434848,0.130222
807.113591,0.840909,0.211681
807.146853,0.713636,0.322911
807.180115,0.259091,0.163684
807.213376,0.106818,0.350153
807.246637,0.690909,0.203685
807.279898,0.159091,0.247665
807.313159,0.343182,0.225227
807.346419,0.341667,0.049624
807.379679,0.714394,0.051363
807.412938,1.520455,0.576712
807.446198,0.763636,0.227636
807.479457,0.559091,0.179344
807.512715,0.875000,0.325157
807.545974,1.425000,0.279155
807.579232,1.059091,0.388809
807.612490,0.559091,0.285921
807.645747,1.075000,0.394675
807.679004,0.714394,0.297291
807.712261,1.428788,0.137176
807.745518,4.227273,0.616994
807.778774,11.747727,1.136411
807.812030,30.315152,1.690469
807.845285,64.620455,3.988372
807.878541,136.384091,5.371066
807.911796,99.331818,2.979499
807.945051,25.842424,1.579426
807.978305,9.561364,1.185259
808.011559,5.615909,0.297899
808.044813,2.515909,0.394610
808.078066,1.584091,0.327909
808.111320,0.990909,0.237628
808.144573,1.102273,0.186291
808.177825,1.029545,0.238222
808.211078,1.634091,0.641943
808.244330,0.870455,0.514845
808.277581,0.509091,0.681485
808.310833,0.584091,0.428074
808.344084,0.528030,0.050347
808.377335,0.509091,0.359292
808.410585,0.186364,0.032381
808.443835,0.465909,0.195755
808.477085,0.621212,0.260126
808.510335,0.136364,0.336333
808.543584,0.497727,0.195913
808.576833,1.602273,0.318739
808.610082,1.090909,0.373447
808.643330,0.747727,0.158126
808.676578,1.377273,0.317751
808.709826,1.050000,0.205339
808.743073,-0.062121,0.098202
808.776320,1.025000,0.251963
808.809567,0.509091,0.195402
808.842814,1.152273,0.457754
808.876060,0.984091,0.213404
808.909306,0.481818,0.105333
808.942552,1.302273,0.288079
808.975797,0.956818,0.525736
809.009042,0.581818,0.188403
809.042287,0.388636,0.154324
809.075531,0.745455,0.201338
809.108775,1.375000,0.280373
809.142019,1.702273,0.670477
809.175262,0.372727,0.085401
809.208506,1.234091,0.349710
809.241748,1.180303,0.425109
809.274991,0.279545,0.096604
809.308233,1.677273,0.092123
809.341475,1.079545,0.502158
809.374717,0.031061,0.177021
809.407958,1.679545,0.239131
809.441199,0.722727,0.215166
809.474440,0.325000,0.121899
809.507680,-0.568182,0.289940
809.540921,-0.022727,0.574398
809.574160,0.493182,0.509298
809.607400,1.947727,0.103071
809.640639,2.568182,0.329937
809.673878,4.355303,0.891429
809.707117,6.734091,0.998415
809.740355,22.063636,1.293156
809.773593,41.175000,2.418855
809.806831,100.631818,3.266663
809.840068,197.980303,5.065339
809.873305,121.645455,1.007441
809.906542,29.228030,1.740762
809.939778,9.784091,0.952565
809.973015,4.503788,1.031074
810.006250,3.036364,0.391490
810.039486,3.275000,0.938008
810.072721,1.956818,0.146070
810.105956,2.931818,0.263822
810.139191,1.995455,0.463118
810.172425,1.711364,0.624635
810.205659,1.366667,0.164329
810.238893,2.888636,0.459747
810.272126,2.453788,0.160493
810.305359,2.375000,0.293866
810.338592,2.375000,0.118504
810.371825,2.463636,0.458235
810.405057,1.140909,0.409615
810.438289,0.929545,0.526669
810.471520,1.425000,0.496614
810.504751,1.602273,0.336860
810.537982,2.018182,0.775956
810.571213,0.875000,0.278988
810.604443,1.335606,0.299972
810.637673,1.561364,0.432635
810.670903,1.118182,0.252140
810.704133,0.403788,0.152133
810.737362,1.031818,0.194275
810.770591,1.234091,0.731793
810.803819,0.650000,0.241669
810.837047,1.663636,0.491183
810.870275,1.540909,0.452969
810.903503,1.832576,0.119329
810.936730,2.145455,0.699587
810.969957,0.124242,0.164957
811.003184,1.770455,0.214056
811.036410,1.987879,0.406609
811.069636,2.484848,0.265043
811.102862,3.081818,0.711955
811.136087,1.553030,0.074516
811.169312,2.195455,0.374186
811.202537,1.938636,0.595206
811.235762,1.125000,0.542933
811.268986,1.734091,0.202091
811.302210,2.397727,0.343691
811.335433,1.584091,0.173336
811.368656,3.586364,0.428835
811.401879,2.453788,0.347562
811.435102,4.961364,0.223338
811.468324,3.385606,0.405647
811.501546,3.385606,0.317017
811.534768,4.131061,0.458735
811.567990,5.129545,0.475194
811.601211,5.604545,0.757153
811.634432,5.565909,0.340156
811.667652,11.125000,0.501901
811.700872,30.128788,2.064151
811.734092,56.250758,2.092115
811.767312,113.899242,3.547960
811.800531,220.634091,4.178816
811.833750,158.564394,4.206829
811.866969,49.262121,3.105317
811.900187,12.393182,1.202328
811.933405,7.775000,0.486017
811.966623,5.572727,0.533718
811.999840,5.718182,0.664212
812.033057,2.827273,0.594795
812.066274,3.199242,0.360432
812.099490,3.012879,0.478088
812.132707,1.677273,0.451370
812.165923,1.740909,0.460568
812.199138,1.450000,0.762374
812.232353,1.211364,0.371553
812.265568,1.743182,0.194139
812.298783,3.000000,0.865429
812.331997,0.124242,0.209140
812.365211,1.242424,0.387032
812.398425,1.736364,0.761591
812.431638,1.609091,0.311853
812.464851,2.143182,0.266954
812.498064,1.522727,0.420762
812.531277,0.900758,0.428436
812.564489,1.581818,0.383492
812.597701,1.415909,0.616646
812.630912,0.443182,0.714442
812.664123,2.072727,0.757361
