#{
#    "background_file": "Backgrounds\\\\bg_787.999nm_13bin_219st_244en_10.0s_110g_4x_5_seq.txt",
#    "ccd_image_settings": [
#        1,
#        13,
#        1,
#        1600,
#        219,
#        244
#    ],
#    "ccd_temperature": "-87",
#    "cdRatios": {
#        "mean": 0.9389118540694231,
#        "std": 0.006099834332172878
#    },
#    "center_lambda": 786.0,
#    "comments": "",
#    "dark_region": 12.290538099862488,
#    "date": "10/22/20 15:30:49PM",
#    "eff_field": 1.5,
#    "exposure": 10.0,
#    "fel_lambda": "15.0",
#    "fel_pol": "H",
#    "fel_pulses": 42,
#    "fel_pyro_cal": "0.012",
#    "fel_reprate": "1.07",
#    "fel_transmission": "1.0",
#    "fel_transmission_fits": {
#        "A": 1.0,
#        "C": 0.0,
#        "Mu": 0.0
#    },
#    "fieldInt": {
#        "mean": 5604.757323863637,
#        "std": 226.0629938800057
#    },
#    "fieldStrength": {
#        "mean": 34.34364015151515,
#        "std": 0.6930454660004177
#    },
#    "fpTime": {
#        "mean": 1.1743696323907087,
#        "std": 0.051387587505440244
#    },
#    "gain": 110,
#    "grating": 3,
#    "images_in_sequence": [
#        "hsg_820nm_c123_a45_HAna301.txt",
#        "hsg_820nm_c123_a45_HAna302.txt",
#        "hsg_820nm_c123_a45_HAna303.txt",
#        "hsg_820nm_c123_a45_HAna304.txt"
#    ],
#    "nir_lambda": "819.98",
#    "nir_pola": "45",
#    "nir_polg": "0",
#    "nir_power": "100.0",
#    "pulseEnergies": {
#        "mean": 1.7243030303030302,
#        "std": 0.07714584721953507
#    },
#    "pyroVoltage": {
#        "mean": 0.1530849518634028,
#        "std": 0.007594569336863911
#    },
#    "rotatorAngle": 180.0,
#    "sample_Temp": "55",
#    "sample_name": "L001218.C1",
#    "series": "820_Fan",
#    "slits": "60",
#    "spec_step": "",
#    "window_trans": 0.92,
#    "y_max": 2,
#    "y_min": 1
#}
#
#
#
#
#
#
#
#
#
#
#
#
#
#
#
#
#
#
#
#
#
#
#
#
#
#
Wavelength,Signal,error
nm,arb. u.,arb.u.
Wavelength,820_Fan,error
759.194366,-0.045455,0.108474
759.228015,-0.336364,0.031818
759.261663,-0.079545,0.119199
759.295311,0.613636,0.272661
759.328959,0.163636,0.111896
759.362607,0.170455,0.102115
759.396254,0.329545,0.046396
759.429901,0.295455,0.128424
759.463548,0.084091,0.119459
759.497194,-0.002273,0.033767
759.530841,0.322727,0.253926
759.564487,0.186364,0.055809
759.598133,-0.152273,0.176085
759.631779,-0.050000,0.040719
759.665424,-0.161364,0.104465
759.699069,0.165909,0.053626
759.732714,0.345455,0.192954
759.766359,0.347727,0.189507
759.800003,-0.004545,0.128746
759.833648,-0.004545,0.067535
759.867292,0.204545,0.156092
759.900935,-0.047727,0.023918
759.934579,0.204545,0.260493
759.968222,0.002273,0.033767
760.001865,0.025000,0.063260
760.035508,0.200000,0.234521
760.069151,-0.693182,0.046396
760.102793,0.179545,0.164718
760.136435,-0.070455,0.062850
760.170077,-0.004545,0.085311
760.203718,0.390909,0.205125
760.237360,0.172727,0.132755
760.271001,-0.025000,0.067831
760.304642,0.120455,0.039545
760.338283,0.022727,0.040465
760.371923,0.197727,0.237418
760.405563,0.072727,0.142983
760.439203,0.181818,0.116819
760.472843,-0.068182,0.037689
760.506482,0.000000,0.035355
760.540122,0.022727,0.040465
760.573761,0.261364,0.094222
760.607399,0.075000,0.064952
760.641038,0.100000,0.050000
760.674676,-0.129545,0.217194
760.708314,-0.097727,0.099761
760.741952,-0.068182,0.158326
760.775589,0.129545,0.111636
760.809227,0.036364,0.169954
760.842864,0.340909,0.228824
760.876501,-0.097727,0.057619
760.910137,-0.050000,0.098779
760.943774,0.145455,0.055017
760.977410,0.000000,0.032141
761.011046,0.100000,0.092375
761.044681,0.204545,0.180635
761.078317,-0.056818,0.230844
761.111952,-0.097727,0.061269
761.145587,0.070455,0.038081
761.179221,0.043182,0.052359
761.212856,0.015909,0.154892
761.246490,-0.188636,0.054864
761.280124,-0.027273,0.060388
761.313758,0.425000,0.230149
761.347391,-0.152273,0.128620
761.381024,0.090909,0.196456
761.414657,-0.545455,0.053300
761.448290,-0.027273,0.069976
761.481923,-0.334091,0.025180
761.515555,-0.472727,0.112126
761.549187,-0.120455,0.055052
761.582819,-0.050000,0.053926
761.616450,0.036364,0.132794
761.650082,0.152273,0.155524
761.683713,0.165909,0.037534
761.717344,-0.306818,0.060163
761.750974,0.118182,0.039886
761.784605,-0.304545,0.186820
761.818235,0.047727,0.124788
761.851865,0.227273,0.137645
761.885494,0.018182,0.084060
761.919124,0.150000,0.258602
761.952753,0.188636,0.054864
761.986382,0.097727,0.057619
762.020010,-0.525000,0.026963
762.053639,-0.265909,0.045611
762.087267,0.061364,0.169996
762.120895,-0.070455,0.038081
762.154523,0.190909,0.047997
762.188150,0.275000,0.150837
762.221777,0.086364,0.190001
762.255404,0.072727,0.061322
762.289031,-0.072727,0.061322
762.322658,0.156818,0.109722
762.356284,-0.029545,0.070519
762.389910,0.138636,0.070957
762.423536,-0.186364,0.088869
762.457161,0.147727,0.134854
762.490786,0.472727,0.079513
762.524411,0.304545,0.245212
762.558036,0.150000,0.192029
762.591661,0.175000,0.154925
762.625285,-0.106818,0.189562
762.658909,0.025000,0.038753
762.692533,-0.165909,0.062521
762.726157,-0.002273,0.033767
762.759780,0.097727,0.035410
762.793403,0.134091,0.105400
762.827026,0.311364,0.069411
762.860649,0.184091,0.106133
762.894271,-0.115909,0.099657
762.927893,0.134091,0.123456
762.961515,-0.050000,0.081597
762.995137,-0.013636,0.129106
763.028758,0.002273,0.033767
763.062379,-0.040909,0.131327
763.096000,0.047727,0.055426
763.129621,0.386364,0.388862
763.163241,-0.031818,0.136117
763.196862,0.327273,0.120818
763.230481,-0.125000,0.126555
763.264101,0.000000,0.000000
763.297721,-0.122727,0.082165
763.331340,0.045455,0.042030
763.364959,0.481818,0.380816
763.398578,0.279545,0.172529
763.432196,0.154545,0.217826
763.465814,-0.065909,0.172349
763.499432,0.361364,0.191244
763.533050,0.104545,0.157901
763.566668,-0.047727,0.023918
763.600285,0.163636,0.136817
763.633902,-0.522727,0.111410
763.667519,-0.025000,0.067831
763.701135,0.106818,0.142599
763.734752,0.218182,0.123483
763.768368,-0.004545,0.173369
763.801984,-0.097727,0.104019
763.835599,-0.118182,0.018464
763.869215,-0.350000,0.113795
763.902830,-0.259091,0.033633
763.936444,0.072727,0.021076
763.970059,0.136364,0.100155
764.003673,-0.072727,0.041161
764.037288,-0.168182,0.089217
764.070901,-0.504545,0.050360
764.104515,-0.020455,0.071320
764.138128,0.140909,0.051975
764.171742,-0.290909,0.063311
764.205354,-0.072727,0.061322
764.238967,0.077273,0.131681
764.272580,-0.013636,0.151388
764.306192,0.072727,0.073785
764.339804,0.015909,0.125407
764.373415,-0.050000,0.040719
764.407027,-0.163636,0.145845
764.440638,0.359091,0.150807
764.474249,-0.061364,0.193686
764.507860,-0.052273,0.073881
764.541470,-0.147727,0.072469
764.575080,-0.265909,0.078820
764.608690,0.068182,0.094174
764.642300,0.075000,0.091384
764.675909,0.043182,0.052359
764.709519,0.163636,0.050206
764.743128,0.188636,0.115502
764.776736,-0.025000,0.063260
764.810345,0.350000,0.276872
764.843953,0.043182,0.052359
764.877561,0.075000,0.133236
764.911169,0.368182,0.216816
764.944776,0.047727,0.023918
764.978384,0.165909,0.037534
765.011991,-0.122727,0.054782
765.045598,-0.193182,0.058685
765.079204,0.140909,0.051975
765.112810,0.031818,0.168994
765.146416,0.090909,0.127920
765.180022,0.502273,0.269016
765.213628,0.152273,0.159200
765.247233,-0.027273,0.039756
765.280838,0.050000,0.040719
765.314443,0.000000,0.047781
765.348048,-0.386364,0.066920
765.381652,-0.765909,0.083095
765.415256,-0.052273,0.073881
765.448860,-0.047727,0.051363
765.482463,-0.284091,0.029348
765.516067,0.168182,0.022613
765.549670,-0.152273,0.128620
765.583273,0.225000,0.167239
765.616875,0.193182,0.077097
765.650478,0.227273,0.149033
765.684080,-0.088636,0.086266
765.717682,-0.047727,0.023918
765.751283,-0.038636,0.118460
765.784885,0.081818,0.208348
765.818486,0.277273,0.171421
765.852087,0.125000,0.142309
765.885687,-0.209091,0.101487
765.919288,0.043182,0.085484
765.952888,0.331818,0.161492
765.986488,0.120455,0.099138
766.020087,-0.020455,0.050858
766.053687,-0.256818,0.075266
766.087286,0.309091,0.016701
766.120885,0.120455,0.089614
766.154484,0.000000,0.095563
766.188082,-0.165909,0.019385
766.221680,-0.025000,0.021651
766.255278,-0.022727,0.142784
766.288876,-0.050000,0.053926
766.322473,0.218182,0.114812
766.356070,0.347727,0.220029
766.389667,0.143182,0.082345
766.423264,0.047727,0.023918
766.456860,0.088636,0.073320
766.490457,0.322727,0.173726
766.524053,0.570455,0.328208
766.557648,-0.075000,0.064952
766.591244,0.502273,0.170905
766.624839,0.122727,0.071184
766.658434,0.120455,0.039545
766.692029,0.045455,0.042030
766.725623,0.370455,0.197436
766.759217,0.197727,0.117760
766.792811,-0.022727,0.040465
766.826405,0.068182,0.037689
766.859999,0.613636,0.096236
766.893592,-0.120455,0.156715
766.927185,0.904545,0.503156
766.960777,0.037879,0.079805
766.994370,-0.625000,0.066910
767.027962,0.181818,0.212934
767.061554,-0.218182,0.094857
767.095146,0.263636,0.108806
767.128737,-0.193182,0.037119
767.162329,-0.113636,0.074516
767.195920,0.084091,0.163301
767.229510,0.022727,0.107877
767.263101,0.070455,0.083960
767.296691,-0.209091,0.056864
767.330281,0.097727,0.122279
767.363871,0.047727,0.023918
767.397460,-0.050000,0.025000
767.431050,-0.027273,0.039756
767.464639,-0.070455,0.083960
767.498227,0.322727,0.282432
767.531816,0.018182,0.093541
767.565404,0.229545,0.178300
767.598992,-0.022727,0.086334
767.632580,0.070455,0.062850
767.666168,-0.193182,0.058685
767.699755,-0.168182,0.041969
767.733342,0.156818,0.120578
767.766929,0.213636,0.060174
767.800515,-0.170455,0.096925
767.834101,0.068182,0.037689
767.867687,0.222727,0.090081
767.901273,-0.095455,0.032221
767.934859,0.109091,0.120433
767.968444,0.043182,0.072398
768.002029,0.090909,0.065948
768.035614,-0.452273,0.036699
768.069198,0.079545,0.119199
768.102783,0.093182,0.098668
768.136367,0.209091,0.103353
768.169950,-0.025000,0.063260
768.203534,0.097727,0.035410
768.237117,-0.215909,0.024557
768.270700,-0.186364,0.043182
768.304283,-0.240909,0.029545
768.337866,0.131818,0.281937
768.371448,0.063636,0.120003
768.405030,0.034091,0.124498
768.438612,0.004545,0.059396
768.472193,0.263636,0.089650
768.505775,0.075000,0.052458
768.539356,0.234091,0.092396
768.572936,-0.143182,0.055519
768.606517,-0.004545,0.067535
768.640097,0.322727,0.204204
768.673677,0.093182,0.032201
768.707257,0.050000,0.331639
768.740836,-0.240909,0.043658
768.774416,0.277273,0.100695
768.807995,0.068182,0.037689
768.841574,0.150000,0.194700
768.875152,0.159091,0.137777
768.908730,0.381818,0.048638
768.942308,-0.027273,0.081121
768.975886,0.022727,0.019682
769.009464,0.070455,0.020423
769.043041,0.295455,0.209745
769.076618,0.029545,0.062768
769.110195,-0.002273,0.033767
769.143771,-0.215909,0.055705
769.177348,-0.029545,0.080249
769.210924,0.000000,0.035355
769.244499,0.065909,0.124373
769.278075,-0.284091,0.178474
769.311650,0.054545,0.080866
769.345225,0.090909,0.055670
769.378800,0.068182,0.068823
769.412375,0.122727,0.054782
769.445949,0.145455,0.055017
769.479523,0.263636,0.150516
769.513097,0.143182,0.055519
769.546670,-0.165909,0.019385
769.580243,0.118182,0.133376
769.613816,0.006818,0.090532
769.647389,0.027273,0.039756
769.680962,0.000000,0.070711
769.714534,0.118182,0.018464
769.748106,0.293182,0.147373
769.781678,0.122727,0.054782
769.815249,-0.047727,0.051363
769.848820,-0.025000,0.130375
769.882391,-0.070455,0.094605
769.915962,0.236364,0.036927
769.949533,0.045455,0.042030
769.983103,0.154545,0.142983
770.016673,-0.020455,0.100432
770.050243,-0.409091,0.048212
770.083812,-0.002273,0.060334
770.117381,0.259091,0.163684
770.150950,0.268182,0.292847
770.184519,0.190909,0.004545
770.218088,-0.215909,0.040449
770.251656,-0.265909,0.045611
770.285224,0.168182,0.041969
770.318791,0.018182,0.099741
770.352359,-0.286364,0.036007
770.385926,-0.168182,0.041969
770.419493,0.293182,0.096014
770.453060,0.295455,0.206743
770.486626,0.247727,0.160622
770.520192,-0.002273,0.126637
770.553758,0.100000,0.081439
770.587324,-0.027273,0.069976
770.620890,0.268182,0.108020
770.654455,0.238636,0.090017
770.688020,-0.163636,0.050206
770.721584,-0.070455,0.020423
770.755149,0.397727,0.172619
770.788713,-0.220455,0.074438
770.822277,0.050000,0.147167
770.855841,0.127273,0.145028
770.889404,0.072727,0.073785
770.922967,-0.043182,0.052359
770.956530,0.297727,0.157963
770.990093,0.368182,0.257722
771.023655,0.125000,0.152810
771.057217,-0.150000,0.122158
771.090779,0.025000,0.054486
771.124341,0.022727,0.019682
771.157902,0.075000,0.064952
771.191463,0.440909,0.164816
771.225024,-0.031818,0.103178
771.258585,0.118182,0.154879
771.292145,0.025000,0.021651
771.325705,0.143182,0.055519
771.359265,-0.120455,0.023038
771.392825,0.222727,0.096771
771.426384,0.000000,0.102701
771.459943,0.090909,0.086304
771.493502,-0.075000,0.052458
771.527061,-0.072727,0.073785
771.560619,0.100000,0.086603
771.594177,0.025000,0.094878
771.627735,-0.045455,0.074273
771.661293,0.015909,0.084817
771.694850,-0.263636,0.108806
771.728407,0.065909,0.060591
771.761964,0.095455,0.047835
771.795521,-0.218182,0.043952
771.829077,-0.131818,0.139602
771.862633,-0.027273,0.053203
771.896189,0.231818,0.144475
771.929744,0.052273,0.086744
771.963300,0.047727,0.051363
771.996855,0.095455,0.102726
772.030409,0.070455,0.109769
772.063964,0.145455,0.044652
772.097518,-0.113636,0.121394
772.131072,0.363636,0.109422
772.164626,-0.006818,0.162349
772.198180,0.734091,0.523333
772.231733,0.340909,0.303586
772.265286,-0.075000,0.041458
772.298839,0.070455,0.094605
772.332391,0.059091,0.156488
772.365943,0.025000,0.038753
772.399495,0.256818,0.198037
772.433047,-0.093182,0.074854
772.466598,0.220455,0.127044
772.500150,0.418182,0.285243
772.533701,-0.147727,0.088044
772.567251,0.088636,0.086266
772.600802,0.025000,0.038753
772.634352,0.215909,0.124912
772.667902,-0.386364,0.117370
772.701452,0.215909,0.064313
772.735001,0.115909,0.037397
772.768550,0.118182,0.018464
772.802099,-0.045455,0.052911
772.835648,0.070455,0.020423
772.869196,0.045455,0.052911
772.902744,-0.143182,0.051464
772.936292,0.011364,0.144649
772.969840,0.143182,0.024133
773.003387,0.279545,0.296909
773.036934,-0.002273,0.033767
773.070481,-0.120455,0.023038
773.104028,0.000000,0.035355
773.137574,0.136364,0.137645
773.171120,-0.290909,0.065002
773.204666,-0.022727,0.040465
773.238212,-0.095455,0.035428
773.271757,-0.081818,0.226065
773.305302,0.152273,0.177604
773.338847,-0.006818,0.088103
773.372391,0.072727,0.050103
773.405936,-0.090909,0.078730
773.439480,-0.145455,0.078269
773.473024,0.268182,0.125906
773.506567,0.186364,0.085129
773.540110,0.025000,0.063260
773.573653,0.100000,0.153405
773.607196,-0.170455,0.054106
773.640739,0.370455,0.239476
773.674281,-0.045455,0.052911
773.707823,-0.313636,0.073750
773.741365,-0.197727,0.117760
773.774906,-0.311364,0.026186
773.808447,-0.095455,0.106090
773.841988,0.263636,0.163668
773.875529,0.302273,0.084512
773.909070,0.027273,0.053203
773.942610,0.295455,0.312589
773.976150,-0.550000,0.046187
774.009689,0.052273,0.095691
774.043229,0.115909,0.049311
774.076768,0.350000,0.276872
774.110307,0.143182,0.147583
774.143845,0.065909,0.088337
774.177384,-0.027273,0.069976
774.210922,0.247727,0.225387
774.244460,0.134091,0.210700
774.277997,-0.075000,0.064952
774.311535,-0.090909,0.045455
774.345072,-0.052273,0.070884
774.378609,0.377273,0.086752
774.412145,0.225000,0.194856
774.445682,0.093182,0.092396
774.479218,0.170455,0.054106
774.512754,0.088636,0.086266
774.546289,-0.077273,0.085673
774.579824,-0.090909,0.089995
774.613359,0.172727,0.106649
774.646894,0.020455,0.050858
774.680429,0.190909,0.070857
774.713963,-0.093182,0.134548
774.747497,0.238636,0.051664
774.781031,-0.122727,0.054782
774.814564,0.025000,0.067831
774.848097,0.277273,0.109493
774.881630,0.311364,0.226963
774.915163,0.050000,0.075000
774.948696,0.529545,0.323947
774.982228,-0.020455,0.075404
775.015760,-0.093182,0.032201
775.049291,0.025000,0.038753
775.082823,-0.113636,0.074516
775.116354,0.129545,0.223523
775.149885,-0.068182,0.051676
775.183416,0.588636,0.219583
775.216946,0.188636,0.054864
775.250476,-0.331818,0.015909
775.284006,0.045455,0.068182
775.317535,0.390909,0.162210
775.351065,-0.113636,0.082478
775.384594,-0.075000,0.041458
775.418123,-0.072727,0.041161
775.451651,0.118182,0.107661
775.485180,0.018182,0.084060
775.518708,-0.040909,0.085129
775.552235,-0.040909,0.078828
775.585763,0.154545,0.189987
775.619290,-0.522727,0.034091
775.652817,0.072727,0.021076
775.686344,0.331818,0.050360
775.719870,0.377273,0.169024
775.753397,-0.011364,0.121686
775.786923,0.402273,0.180346
775.820448,0.150000,0.081597
775.853974,-0.128788,0.098970
775.887499,0.070455,0.067449
775.921024,0.115909,0.049311
775.954549,0.097727,0.061269
775.988073,0.100000,0.059440
776.021597,0.054545,0.128605
776.055121,0.320455,0.171809
776.088645,0.888636,0.183863
776.122168,-0.118182,0.088257
776.155691,0.118182,0.039886
776.189214,0.043182,0.069337
776.222737,-0.095455,0.035428
776.256259,-0.086364,0.118596
776.289781,-0.029545,0.070519
776.323303,-0.075000,0.076492
776.356824,-0.245455,0.106552
776.390346,-0.045455,0.052911
776.423867,0.140909,0.097727
776.457387,-0.286364,0.048265
776.490908,0.209091,0.066959
776.524428,-0.072727,0.041161
776.557948,0.168182,0.089217
776.591468,-0.002273,0.075540
776.624987,-0.075000,0.041458
776.658506,-0.097727,0.057619
776.692025,0.268182,0.097991
776.725544,-0.056818,0.099502
776.759062,-0.027273,0.039756
776.792581,-0.352273,0.062932
776.826099,0.118182,0.039886
776.859616,-0.102273,0.110566
776.893134,0.095455,0.035428
776.926651,0.163636,0.035646
776.960167,-0.175000,0.110004
776.993684,0.315909,0.175615
777.027200,0.577273,0.077772
777.060716,0.186364,0.055809
777.094232,0.093182,0.032201
777.127748,-0.025000,0.021651
777.161263,-0.102273,0.092340
777.194778,0.300000,0.154612
777.228293,0.047727,0.023918
777.261807,0.131818,0.354524
777.295322,0.020455,0.071320
777.328836,0.097727,0.035410
777.362349,-0.095455,0.070747
777.395863,0.018182,0.070711
777.429376,-0.068182,0.068823
777.462889,-0.045455,0.080930
777.496401,-0.100000,0.088782
777.529914,-0.095455,0.035428
777.563426,0.163636,0.093376
777.596938,0.002273,0.033767
777.630449,0.159091,0.118466
777.663961,0.209091,0.056864
777.697472,-0.147727,0.072469
777.730983,-0.072727,0.081502
777.764493,0.252273,0.107583
777.798004,0.552273,0.202550
777.831514,-0.163636,0.111896
777.865023,-0.404545,0.072549
777.898533,-0.027273,0.095021
777.932042,0.115909,0.062438
777.965551,0.020455,0.039414
777.999060,0.115909,0.074369
778.032568,0.218182,0.056408
778.066076,0.288636,0.128500
778.099584,0.879545,0.345176
778.133092,0.156818,0.109722
778.166599,0.188636,0.030724
778.200107,0.070455,0.062850
778.233613,-0.040909,0.085129
778.267120,0.152273,0.223407
778.300626,-0.031818,0.116309
778.334132,-0.068182,0.153253
778.367638,0.315909,0.115502
778.401144,0.295455,0.174527
778.434649,0.118182,0.060473
778.468154,-0.018182,0.061237
778.501659,0.236364,0.066804
778.535163,0.195455,0.163904
778.568668,-0.163636,0.035646
778.602172,0.070455,0.124166
778.635675,-0.102273,0.110566
778.669179,-0.122727,0.054782
778.702682,0.140909,0.076162
778.736185,-0.152273,0.122110
778.769688,-0.140909,0.020455
778.803190,0.170455,0.073671
778.836692,0.079545,0.180489
778.870194,0.002273,0.060334
778.903696,0.070455,0.038081
778.937197,0.077273,0.094993
778.970698,0.165909,0.083714
779.004199,-0.047727,0.023918
779.037699,0.097727,0.057619
779.071200,-0.215909,0.024557
779.104700,0.045455,0.076803
779.138199,0.279545,0.119718
779.171699,0.225000,0.257879
779.205198,-0.070455,0.038081
779.238697,0.175000,0.107246
779.272196,-0.045455,0.052911
779.305694,-0.193182,0.037119
779.339192,0.045455,0.098228
779.372690,0.070455,0.038081
779.406188,0.143182,0.082345
779.439685,0.265909,0.074922
779.473182,-0.075000,0.076492
779.506679,-0.000000,0.073364
779.540176,0.020455,0.071320
779.573672,0.313636,0.058077
779.607168,0.720455,0.246282
779.640664,0.002273,0.126637
779.674160,0.184091,0.160396
779.707655,0.193182,0.062272
779.741150,0.243182,0.058509
779.774644,-0.079545,0.092786
779.808139,-0.145455,0.069829
779.841633,-0.170455,0.043524
779.875127,0.275000,0.237940
779.908621,0.109091,0.115127
779.942114,0.252273,0.164530
779.975607,0.268182,0.097991
780.009100,0.200000,0.145774
780.042593,-0.150000,0.133821
780.076085,0.181818,0.161380
780.109577,-0.045455,0.080930
780.143069,0.436364,0.232819
780.176560,-0.309091,0.059959
780.210052,0.095455,0.073399
780.243543,0.075000,0.072469
780.277033,0.320455,0.204984
780.310524,0.100000,0.121586
780.344014,0.068182,0.037689
780.377504,0.075000,0.175644
780.410994,-0.209091,0.056864
780.444483,0.000000,0.064282
780.477972,0.052273,0.086744
780.511461,0.161364,0.058421
780.544950,-0.100000,0.061237
780.578438,0.093182,0.055705
780.611926,0.136364,0.093707
780.645414,0.156818,0.123037
780.678902,-0.097727,0.057619
780.712389,0.195455,0.070820
780.745876,0.122727,0.095913
780.779363,0.088636,0.122237
780.812849,0.184091,0.071175
780.846335,0.163636,0.204773
780.879821,0.006818,0.090532
780.913307,0.025000,0.021651
780.946792,-0.143182,0.055519
780.980277,0.206818,0.125531
781.013762,0.247727,0.189207
781.047247,-0.115909,0.062438
781.080731,0.159091,0.174083
781.114215,-0.015909,0.125407
781.147699,0.020455,0.205864
781.181183,-0.081818,0.119269
781.214666,0.463636,0.210838
781.248149,-0.234091,0.048359
781.281632,-0.013636,0.129106
781.315114,-0.025000,0.038753
781.348596,0.143182,0.055519
781.382078,0.343182,0.136982
781.415560,0.290909,0.094912
781.449041,0.418182,0.194235
781.482522,0.004545,0.152679
781.516003,0.293182,0.119242
781.549484,-0.004545,0.151081
781.582964,0.213636,0.039430
781.616444,0.011364,0.139189
781.649924,0.000000,0.047781
781.683404,0.145455,0.114135
781.716883,0.331818,0.120626
781.750362,0.161364,0.141216
781.783841,0.120455,0.084634
781.817319,0.100000,0.155013
781.850797,0.156818,0.155325
781.884275,0.193182,0.077097
781.917753,0.047727,0.023918
781.951230,0.047727,0.071681
781.984707,0.120455,0.039545
782.018184,-0.050000,0.053926
782.051661,0.115909,0.049311
782.085137,-0.025000,0.094878
782.118613,0.275000,0.190757
782.152089,0.218182,0.056408
782.185564,0.154545,0.217589
782.219040,-0.125000,0.064952
782.252515,0.311364,0.096014
782.285989,-0.075000,0.091384
782.319464,-0.427273,0.037894
782.352938,0.172727,0.124731
782.386412,-0.093182,0.092396
782.419885,0.138636,0.084267
782.453359,-0.186364,0.043182
782.486832,-0.072727,0.041161
782.520305,0.043182,0.123037
782.553777,0.070455,0.131204
782.587249,0.302273,0.195702
782.620721,0.236364,0.051124
782.654193,0.025000,0.038753
782.687665,0.009091,0.177738
782.721136,0.261364,0.037119
782.754607,-0.195455,0.063107
782.788077,0.327273,0.079578
782.821548,-0.027273,0.039756
782.855018,-0.072727,0.041161
782.888488,-0.070455,0.038081
782.921957,0.043182,0.052359
782.955427,0.209091,0.129924
782.988896,-0.175000,0.094878
783.022365,0.047727,0.023918
783.055833,0.159091,0.154863
783.089301,0.043182,0.072398
783.122769,0.009091,0.191152
783.156237,0.120455,0.055052
783.189704,0.102273,0.124871
783.223172,0.175000,0.094878
783.256638,0.122727,0.147482
783.290105,0.340909,0.185238
783.323571,0.213636,0.085854
783.357037,0.268182,0.125906
783.390503,0.250000,0.167057
783.423969,0.093182,0.074854
783.457434,0.025000,0.038753
783.490899,0.281818,0.087787
783.524364,0.188636,0.058685
783.557828,-0.145455,0.082322
783.591292,0.043182,0.052359
783.624756,-0.100000,0.061237
783.658220,-0.245455,0.077273
783.691683,0.540909,0.279767
783.725146,0.140909,0.134897
783.758609,0.206818,0.102921
783.792072,0.045455,0.052911
783.825534,0.070455,0.067449
783.858996,-0.081818,0.115798
783.892458,-0.018182,0.093541
783.925919,0.297727,0.177429
783.959381,-0.043182,0.052359
783.992842,0.122727,0.054782
784.026302,0.127273,0.172578
784.059763,0.240909,0.131916
784.093223,0.175000,0.151554
784.126683,0.072727,0.086662
784.160142,0.145455,0.044652
784.193601,0.127273,0.172578
784.227060,0.140909,0.097727
784.260519,0.120455,0.039545
784.293978,0.147727,0.088044
784.327436,0.290909,0.154946
784.360894,0.088636,0.107583
784.394352,-0.140909,0.051975
784.427809,-0.147727,0.075404
784.461266,-0.275000,0.152810
784.494723,0.295455,0.230377
784.528180,0.075000,0.091384
784.561636,0.134091,0.172349
784.595092,0.054545,0.097064
784.628548,0.202273,0.175821
784.662003,0.268182,0.156851
784.695458,0.070455,0.088978
784.728913,0.020455,0.039414
784.762368,-0.077273,0.101104
784.795823,0.000000,0.047781
784.829277,-0.243182,0.058509
784.862731,-0.070455,0.038081
784.896184,0.054545,0.101436
784.929637,-0.120455,0.039545
784.963091,0.175000,0.089268
784.996543,0.170455,0.073671
785.029996,0.263636,0.108806
785.063448,0.490909,0.112632
785.096900,0.081818,0.213249
785.130352,0.575000,0.265265
785.163803,-0.018182,0.130637
785.197254,0.077273,0.078038
785.230705,0.070455,0.094605
785.264156,-0.013636,0.172623
785.297606,0.195455,0.093624
785.331056,0.218182,0.056408
785.364506,0.102273,0.092340
785.397955,-0.040909,0.077440
785.431405,0.068182,0.068823
785.464854,0.150000,0.141147
785.498302,0.159091,0.197047
785.531751,0.259091,0.090539
785.565199,-0.027273,0.039756
785.598647,-0.102273,0.077631
785.632094,0.118182,0.060473
785.665542,0.113636,0.068823
785.698989,-0.047727,0.023918
785.732436,-0.009091,0.115082
785.765882,-0.031818,0.085613
785.799328,0.145455,0.082322
785.832774,-0.145455,0.126988
785.866220,0.145455,0.042153
785.899665,0.106818,0.292156
785.933111,0.465909,0.188386
785.966555,0.604545,0.246996
786.000000,0.221970,0.017321
786.033444,-0.124242,0.037206
786.066888,-0.047727,0.023918
786.100332,-0.034091,0.136378
786.133776,-0.004545,0.059396
786.167219,0.153030,0.082687
786.200662,0.450000,0.182003
786.234104,0.234091,0.048359
786.267547,-0.025000,0.038753
786.300989,-0.215909,0.040449
786.334431,-0.004545,0.059396
786.367872,-0.047727,0.023918
786.401314,0.050000,0.053926
786.434755,0.309091,0.085703
786.468196,-0.077273,0.094993
786.501636,0.002273,0.033767
786.535076,0.181818,0.102701
786.568516,0.140909,0.040846
786.601956,0.150000,0.133821
786.635395,0.720455,0.428231
786.668834,0.306818,0.068210
786.702273,0.263636,0.042882
786.735712,0.145455,0.069829
786.769150,-0.097727,0.104019
786.802588,-0.195455,0.070820
786.836026,0.079545,0.153653
786.869463,-0.190909,0.035646
786.902900,0.152273,0.111404
786.936337,0.763636,0.270979
786.969774,0.827273,0.290358
787.003210,0.709091,0.480229
787.036646,0.415909,0.122659
787.070082,-0.077273,0.107108
787.103518,0.095455,0.002273
787.136953,0.513636,0.220197
787.170388,-0.027273,0.053203
787.203823,-0.243182,0.074091
787.237257,-0.002273,0.060334
787.270691,0.027273,0.092988
787.304125,0.097727,0.122279
787.337559,0.277273,0.088636
787.370992,0.245455,0.164329
787.404425,-0.118182,0.060473
787.437858,0.118182,0.049061
787.471290,0.047727,0.023918
787.504723,0.161364,0.142164
787.538155,-0.036364,0.176864
787.571586,0.018182,0.061237
787.605018,0.234091,0.066368
787.638449,0.331818,0.075069
787.671880,-0.147727,0.056442
787.705310,-0.025000,0.021651
787.738741,0.027273,0.039756
787.772171,0.143182,0.024133
787.805600,0.072727,0.041161
787.839030,-0.050000,0.040719
787.872459,0.050000,0.098779
787.905888,-0.029545,0.062768
787.939317,0.104545,0.124835
787.972745,0.106818,0.243009
788.006173,0.115909,0.099657
788.039601,0.245455,0.257069
788.073028,-0.043182,0.106957
788.106456,-0.002273,0.033767
788.139883,-0.027273,0.060388
788.173309,0.588636,0.182254
788.206736,-0.068182,0.051676
788.240162,0.340909,0.174823
788.273588,0.095455,0.077706
788.307013,-0.015909,0.137209
788.340439,0.186364,0.053831
788.373864,-0.013636,0.129106
788.407288,0.445455,0.278314
788.440713,-0.047727,0.023918
788.474137,-0.270455,0.096978
788.507561,-0.018182,0.122474
788.540985,0.047727,0.023918
788.574408,-0.075000,0.076492
788.607831,0.197727,0.104564
788.641254,0.138636,0.084267
788.674677,0.220455,0.204959
788.708099,-0.022727,0.107877
788.741521,0.212879,0.125503
788.774943,0.620455,0.238070
788.808364,0.718182,0.290927
788.841785,0.356818,0.109345
788.875206,0.304545,0.291769
788.908627,0.422727,0.221716
788.942047,0.411364,0.198532
788.975467,-0.052273,0.107967
789.008887,0.063636,0.094966
789.042306,-0.088636,0.174286
789.075726,-0.000000,0.077673
789.109145,0.013636,0.257942
789.142563,0.320455,0.116126
789.175982,0.186364,0.064403
789.209400,0.334091,0.072112
789.242817,0.009091,0.101792
789.276235,0.061364,0.144148
789.309652,-0.027273,0.088198
789.343069,0.620455,0.420502
789.376486,0.088636,0.088746
789.409902,0.031818,0.092626
789.443319,-0.311364,0.064952
789.476735,0.000000,0.000000
789.510150,0.586364,0.299957
789.543565,0.311364,0.096014
789.576980,0.088636,0.142744
789.610395,0.109091,0.136515
789.643810,-0.120455,0.023038
789.677224,-0.228788,0.089487
789.710638,-0.020455,0.075404
789.744052,-0.118182,0.039886
789.777465,0.290909,0.094912
789.810878,-0.168182,0.041969
789.844291,-0.068182,0.037689
789.877703,-0.224242,0.040273
789.911116,-0.052273,0.070884
789.944528,0.177273,0.121352
789.977939,0.095455,0.070747
790.011351,0.079545,0.183328
790.044762,0.302273,0.092786
790.078173,0.236364,0.018182
790.111583,-0.120455,0.068286
790.144994,0.334091,0.455696
790.178404,0.270455,0.216575
790.211813,0.100000,0.088782
790.245223,-0.022727,0.107877
790.278632,0.095455,0.047835
790.312041,0.322727,0.170091
790.345450,-0.145455,0.042153
790.378858,0.072727,0.117304
790.412266,0.122727,0.054782
790.445674,-0.002273,0.033767
790.479081,-0.022727,0.019682
790.512488,0.047727,0.055426
790.545895,0.004545,0.067535
790.579302,0.831818,0.333921
790.612708,0.147727,0.075404
790.646115,0.715909,0.235430
790.679520,1.090909,0.311023
790.712926,0.702273,0.249904
790.746331,0.895455,0.141768
790.779736,0.386364,0.336463
790.813141,-0.025000,0.038753
790.846545,0.409091,0.098857
790.879949,0.022727,0.049533
790.913353,0.122727,0.159367
790.946757,-0.813636,0.064403
790.980160,-0.356818,0.018003
791.013563,0.225000,0.197489
791.046966,0.193182,0.156649
791.080368,0.025000,0.089268
791.113771,-0.054545,0.103303
791.147173,0.090909,0.065948
791.180574,0.145455,0.099378
791.213976,0.120455,0.110286
791.247377,0.068182,0.094174
791.280777,0.065909,0.088337
791.314178,-0.261364,0.088571
791.347578,-0.140909,0.112701
791.380978,0.175000,0.291253
791.414378,0.427273,0.097383
791.447777,0.072727,0.041161
791.481176,0.143182,0.096337
791.514575,-0.070455,0.054010
791.547973,-0.002273,0.099190
791.581372,0.025000,0.054486
791.614770,-0.047727,0.089845
791.648167,0.072727,0.050103
791.681565,-0.029545,0.070519
791.714962,0.179545,0.297656
791.748359,0.111364,0.160782
791.781755,0.047727,0.023918
791.815152,0.438636,0.148907
791.848548,0.018182,0.070711
791.881943,0.222727,0.167674
791.915339,-0.009091,0.123064
791.948734,0.072727,0.021076
791.982129,0.206818,0.125531
792.015523,0.018182,0.093541
792.048918,-0.004545,0.067535
792.082312,0.168182,0.050769
792.115705,0.397727,0.323660
792.149099,-0.018182,0.093541
792.182492,0.190909,0.070857
792.215885,0.097727,0.076289
792.249278,0.370455,0.149496
792.282670,-0.050000,0.043301
792.316062,0.075000,0.072469
792.349454,0.327273,0.273257
792.382845,-0.020455,0.075404
792.416236,0.118182,0.088257
792.449627,0.431818,0.194142
792.483018,0.211364,0.114243
792.516408,0.411364,0.248495
792.549798,1.897727,0.497134
792.583188,1.727273,0.196456
792.616578,1.134091,0.233226
792.649967,0.440909,0.138076
792.683356,0.356818,0.171629
792.716745,0.084091,0.137246
792.750133,-0.286364,0.006818
792.783521,-0.004545,0.047727
792.816909,-0.318182,0.108806
792.850296,0.281818,0.126377
792.883684,-0.127273,0.117963
792.917071,-0.190909,0.004545
792.950457,0.340909,0.165410
792.983844,-0.034091,0.168806
793.017230,0.136364,0.083258
793.050616,0.318182,0.360369
793.084001,0.086364,0.134091
793.117386,0.075000,0.064952
793.150771,-0.004545,0.067535
793.184156,-0.075000,0.072469
793.217541,0.045455,0.074273
793.250925,0.136364,0.145526
793.284309,0.390909,0.187248
793.317692,0.129545,0.208010
793.351075,-0.022727,0.019682
793.384458,0.290909,0.119269
793.417841,0.068182,0.080128
793.451223,0.025000,0.021651
793.484606,0.568182,0.080898
793.517988,0.052273,0.073881
793.551369,0.056818,0.111358
793.584750,0.000000,0.035355
793.618131,-0.170455,0.073671
793.651512,-0.022727,0.049533
793.684893,0.070455,0.157209
793.718273,-0.018182,0.105822
793.751653,-0.047727,0.055426
793.785032,-0.125000,0.088044
793.818411,0.013636,0.122411
793.851790,0.031818,0.143686
793.885169,-0.072727,0.061322
793.918548,0.100000,0.059440
793.951926,0.354545,0.207951
793.985304,0.722727,0.347162
794.018681,0.081818,0.213249
794.052059,0.113636,0.092123
794.085436,-0.022727,0.019682
794.118812,0.015909,0.084817
794.152189,0.043182,0.094551
794.185565,0.302273,0.268747
794.218941,-0.504545,0.086811
794.252317,-0.070455,0.062850
794.285692,0.275000,0.164089
794.319067,0.265909,0.130692
794.352442,0.584091,0.234176
794.385816,1.647727,0.344607
794.419190,1.988636,0.575941
794.452564,3.775000,0.580906
794.485938,1.902273,0.076289
794.519311,0.752273,0.196229
794.552684,0.040909,0.085129
794.586057,0.275000,0.280318
794.619429,0.243182,0.113971
794.652802,-0.479545,0.042564
794.686173,0.163636,0.067726
794.719545,0.143182,0.055519
794.752916,0.679545,0.180432
794.786287,0.190909,0.064443
794.819658,0.295455,0.157344
794.853029,0.195455,0.227738
794.886399,0.102273,0.218782
794.919769,0.027273,0.039756
794.953138,0.172727,0.096477
794.986508,0.095455,0.032221
795.019877,0.638636,0.500850
795.053245,-0.140909,0.020455
795.086614,0.331818,0.038770
795.119982,0.036364,0.150447
795.153350,0.159091,0.168810
795.186718,0.025000,0.067831
795.220085,0.140909,0.146463
795.253452,-0.127273,0.123147
795.286819,0.095455,0.119594
795.320185,0.170455,0.066290
795.353551,-0.456818,0.070592
795.386917,0.143182,0.024133
795.420283,-0.111364,0.147723
795.453648,0.218182,0.063229
795.487013,0.088636,0.118634
795.520378,0.504545,0.125906
795.553742,0.179545,0.149806
795.587107,-0.002273,0.060334
795.620471,0.293182,0.124166
795.653834,0.234091,0.213839
795.687197,-0.190909,0.047997
795.720560,0.093182,0.059472
795.753923,-0.036364,0.215058
795.787286,-0.047727,0.089845
795.820648,0.222727,0.198405
795.854010,0.025000,0.140004
795.887371,0.295455,0.275394
795.920733,0.170455,0.073671
795.954094,0.461364,0.218498
795.987454,0.218182,0.148094
796.020815,0.195455,0.195230
796.054175,0.095455,0.306380
796.087535,0.363636,0.078467
796.120894,0.100000,0.269258
796.154254,0.356818,0.127895
796.187613,0.322727,0.284127
796.220971,0.304545,0.095860
796.254330,1.086364,0.289744
796.287688,2.002273,0.538424
796.321046,5.625758,0.973607
796.354403,6.037121,0.557518
796.387761,2.309091,0.382575
796.421118,1.020455,0.215043
796.454474,1.261364,0.156121
796.487831,0.190909,0.073504
796.521187,0.288636,0.150700
796.554543,0.306818,0.072469
796.587898,-0.031818,0.085613
796.621254,-0.147727,0.056442
796.654609,0.211364,0.159848
796.687963,-0.165909,0.098353
796.721318,0.709091,0.094912
796.754672,0.390909,0.152358
796.788026,0.156818,0.173306
796.821379,0.043182,0.052359
796.854732,0.002273,0.033767
796.888085,0.297727,0.140666
796.921438,0.527273,0.219009
796.954790,0.681818,0.193889
796.988142,-0.086364,0.169360
797.021494,0.040909,0.095373
797.054846,-0.004545,0.047727
797.088197,0.250000,0.199392
797.121548,0.038636,0.097297
797.154899,0.113636,0.104570
797.188249,-0.102273,0.092340
797.221599,0.284091,0.084022
797.254949,0.025000,0.038753
797.288298,0.356818,0.083405
797.321648,0.325000,0.130098
797.354996,-0.054545,0.106406
797.388345,0.156818,0.191918
797.421693,0.315909,0.356396
797.455041,-0.427273,0.145667
797.488389,0.047727,0.023918
797.521737,0.381818,0.171406
797.555084,0.209091,0.072798
797.588431,0.629545,0.442586
797.621777,0.263636,0.134303
797.655124,0.409091,0.304070
797.688470,0.429545,0.082908
797.721815,-0.306818,0.133855
797.755161,0.311364,0.041458
797.788506,0.181818,0.184637
797.821851,-0.259091,0.066688
797.855196,0.113636,0.068823
797.888540,-0.068939,0.132770
797.921884,-0.272727,0.174838
797.955228,-0.195455,0.115239
797.988571,0.679545,0.200139
798.021914,0.452273,0.017714
798.055257,0.318182,0.297528
798.088599,0.997727,0.313445
798.121942,1.518182,0.249731
798.155284,1.670455,0.252065
798.188625,3.347727,0.696348
798.221967,5.026515,0.608568
798.255308,9.272727,0.658079
798.288649,4.779545,0.582868
798.321989,1.752273,0.306024
798.355329,0.231818,0.229748
798.388669,0.338636,0.241324
798.422009,0.429545,0.352022
798.455348,0.697727,0.078162
798.488687,0.661364,0.330311
798.522026,0.340909,0.124337
798.555365,-0.111364,0.101760
798.588703,-0.338636,0.222852
798.622041,0.070455,0.067449
798.655378,0.618182,0.220279
798.688716,0.236364,0.075583
798.722053,0.518182,0.285840
798.755389,0.704545,0.195547
798.788726,0.409091,0.092319
798.822062,0.543182,0.132224
798.855398,0.202273,0.136832
798.888733,0.168182,0.061867
798.922069,0.286364,0.106285
798.955404,0.313636,0.124254
798.988738,-0.002273,0.060334
799.022073,-0.009091,0.120390
799.055407,0.195455,0.134591
799.088741,0.320455,0.204984
799.122074,0.065909,0.151008
799.155408,0.138636,0.050347
799.188741,0.445455,0.237780
799.222073,0.202273,0.207314
799.255406,-0.052273,0.070884
799.288738,0.054545,0.106406
799.322069,0.243182,0.076963
799.355401,0.279545,0.104712
799.388732,-0.095455,0.166686
799.422063,-0.409091,0.048212
799.455394,-0.095455,0.047835
799.488724,0.329545,0.130968
799.522054,0.679545,0.120492
799.555384,0.865909,0.487185
799.588713,0.161364,0.066679
799.622042,0.263636,0.089650
799.655371,0.097727,0.061269
799.688700,-0.056818,0.139523
799.722028,0.159091,0.088520
799.755356,0.297727,0.208680
799.788684,0.479545,0.151691
799.822011,0.522727,0.284545
799.855338,0.465909,0.299196
799.888665,-0.070455,0.062850
799.921992,0.531818,0.261916
799.955318,0.238636,0.169600
799.988644,0.517424,0.119933
800.021969,1.834091,0.458645
800.055295,1.560606,0.231454
800.088620,5.459091,0.499447
800.121945,11.923485,0.819122
800.155269,19.036364,0.724112
800.188593,12.181818,0.892462
800.221917,4.540909,0.958334
800.255241,1.311364,0.521722
800.288564,0.345455,0.142549
800.321887,0.736364,0.191260
800.355210,1.140909,0.341083
800.388532,0.238636,0.194935
800.421854,0.093182,0.168623
800.455176,0.265909,0.161584
800.488498,-0.075000,0.091384
800.521819,0.500000,0.133066
800.555140,0.740909,0.222530
800.588461,0.909091,0.292820
800.621781,0.627273,0.191719
800.655101,0.320455,0.130454
800.688421,0.095455,0.047835
800.721740,-0.059091,0.143326
800.755060,0.254545,0.163983
800.788379,-0.161364,0.076896
800.821697,0.229545,0.204984
800.855015,0.245455,0.084977
800.888334,0.554545,0.129605
800.921651,0.143182,0.313544
800.954969,0.602273,0.241388
800.988286,0.234091,0.066368
801.021603,0.295455,0.176089
801.054919,0.100000,0.069160
801.088235,-0.079545,0.105400
801.121551,0.352273,0.139486
801.154867,0.327273,0.192499
801.188183,-0.068182,0.112563
801.221498,-0.225000,0.196965
801.254812,0.554545,0.295734
801.288127,0.065909,0.068588
801.321441,0.438636,0.169722
801.354755,-0.009091,0.115082
801.388069,0.484091,0.171026
801.421382,0.718182,0.147219
801.454695,0.070455,0.062850
801.488008,0.029545,0.089845
801.521320,-0.081818,0.124399
801.554632,-0.311364,0.041458
801.587944,-0.056818,0.149323
801.621256,0.297727,0.165687
801.654567,0.413636,0.251062
801.687878,0.431818,0.300765
801.721189,0.165909,0.062521
801.754499,0.372727,0.092151
801.787809,0.002273,0.060334
801.821119,0.304545,0.124046
801.854428,0.340909,0.216506
801.887737,0.670455,0.350448
801.921046,1.468182,0.250382
801.954355,3.543182,0.332166
801.987663,4.720455,0.736892
802.020971,7.032576,0.181980
802.054279,17.933333,1.115240
802.087586,23.736364,1.486652
802.120894,10.954545,0.959247
802.154200,2.300000,0.403791
802.187507,1.165909,0.273981
802.220813,0.525000,0.143610
802.254119,0.122727,0.288296
802.287425,0.454545,0.232241
802.320730,0.327273,0.273257
802.354035,0.265909,0.117101
802.387340,0.215909,0.085060
802.420644,0.347727,0.248807
802.453949,0.202273,0.148699
802.487252,-0.056818,0.219983
802.520556,1.306818,0.478897
802.553859,0.802273,0.234176
802.587162,-0.025000,0.038753
802.620465,0.170455,0.117012
802.653767,0.768182,0.228304
802.687069,0.040909,0.095373
802.720371,0.677273,0.308982
802.753673,0.250000,0.246012
802.786974,0.115909,0.143285
802.820275,0.615909,0.218285
802.853576,0.640909,0.229320
802.886876,0.145455,0.069829
802.920176,0.188636,0.084512
802.953476,-0.100000,0.121586
802.986775,0.147727,0.056442
803.020074,0.052273,0.095691
803.053373,0.486364,0.111549
803.086672,1.190909,0.412336
803.119970,-0.072727,0.050103
803.153268,0.138636,0.127410
803.186565,0.120455,0.039545
803.219863,0.479545,0.305720
803.253160,0.156818,0.221643
803.286457,0.168182,0.041969
803.319753,0.509091,0.318198
803.353049,0.259091,0.111038
803.386345,0.313636,0.282779
803.419641,0.359091,0.321420
803.452936,0.372727,0.209732
803.486231,0.129545,0.256896
803.519525,0.193182,0.202346
803.552820,0.522727,0.205716
803.586114,0.563636,0.193703
803.619408,0.975000,0.262839
803.652701,0.686364,0.356239
803.685994,0.163636,0.067726
803.719287,0.272727,0.154846
803.752580,0.531818,0.321581
803.785872,0.472727,0.230634
803.819164,0.224242,0.099430
803.852456,1.654545,0.410150
803.885747,4.361364,0.426309
803.919038,7.363636,0.242661
803.952329,16.540909,0.950476
803.985620,37.247727,0.789820
804.018910,38.392424,1.649361
804.052200,12.517424,0.559353
804.085489,4.243182,0.450016
804.118779,1.618182,0.489550
804.152068,-0.140909,0.144796
804.185357,0.365909,0.157537
804.218645,0.486364,0.143326
804.251933,0.527273,0.085763
804.285221,0.247727,0.113426
804.318508,0.115909,0.089614
804.351796,0.465909,0.272071
804.385083,0.286364,0.179804
804.418369,0.627273,0.177738
804.451656,0.311364,0.315711
804.484942,-0.190909,0.032461
804.518227,0.813636,0.140156
804.551513,0.706818,0.127612
804.584798,0.534091,0.156913
804.618083,0.450000,0.334477
804.651367,0.406818,0.100380
804.684652,-0.229545,0.121771
804.717936,0.217424,0.067065
804.751219,0.968182,0.330750
804.784503,0.115909,0.089614
804.817786,-0.009091,0.135680
804.851068,0.527273,0.251586
804.884351,0.611364,0.213476
804.917633,0.290909,0.065002
804.950915,0.190909,0.250145
804.984196,0.586364,0.192029
805.017478,0.261364,0.298505
805.050759,-0.165909,0.019385
805.084039,0.990909,0.210101
805.117320,0.543182,0.324966
805.150600,0.750000,0.294518
805.183879,0.422727,0.157476
805.217159,0.136364,0.123273
805.250438,1.011364,0.434601
805.283717,0.747727,0.185930
805.316995,0.275000,0.221107
805.350274,0.622727,0.223457
805.383552,0.797727,0.383039
805.416829,0.425000,0.103322
805.450107,0.713636,0.119766
805.483384,0.663636,0.325389
805.516660,0.743182,0.193552
805.549937,1.109091,0.685686
805.583213,0.134091,0.095095
805.616489,0.652273,0.225410
805.649764,0.532576,0.100140
805.683040,0.959091,0.306009
805.716315,0.740909,0.152307
805.749589,2.162879,0.461597
805.782864,1.718182,0.281873
805.816138,3.613636,0.465787
805.849411,14.320455,1.429101
805.882685,39.470455,0.750058
805.915958,63.453030,1.599338
805.949231,86.911364,1.641282
805.982504,33.090909,1.676900
806.015776,9.711364,0.471265
806.049048,5.527273,0.632815
806.082319,3.300000,0.524542
806.115591,1.440909,0.232074
806.148862,1.245455,0.154110
806.182133,0.863636,0.380639
806.215403,0.470455,0.155225
806.248673,0.248485,0.098333
806.281943,1.093182,0.321257
806.315213,1.538636,0.678411
806.348482,0.265909,0.137397
806.381751,0.750000,0.305621
806.415019,0.475000,0.242029
806.448288,0.943182,0.332228
806.481556,0.650000,0.454381
806.514823,0.164394,0.074137
806.548091,0.868182,0.391866
806.581358,0.615909,0.367485
806.614625,1.014394,0.179887
806.647891,0.534091,0.245315
806.681158,0.434091,0.144899
806.714424,0.611364,0.144148
806.747689,0.581818,0.251996
806.780955,0.713636,0.220197
806.814220,0.629545,0.149288
806.847484,0.863636,0.404648
806.880749,0.226515,0.072279
806.914013,0.636364,0.430032
806.947277,0.086364,0.104718
806.980540,0.493182,0.300935
807.013803,0.775000,0.437704
807.047066,0.243182,0.221550
807.080329,0.425000,0.130296
807.113591,0.434091,0.187424
807.146853,1.206818,0.441417
807.180115,0.618182,0.299241
807.213376,0.531818,0.169116
807.246637,0.468182,0.090024
807.279898,0.694697,0.126010
807.313159,0.354545,0.055391
807.346419,0.590909,0.290234
807.379679,0.461364,0.216121
807.412938,0.345455,0.181021
807.446198,0.536364,0.201056
807.479457,1.175000,0.381404
807.512715,0.661364,0.111219
807.545974,1.154545,0.473011
807.579232,0.513636,0.144081
807.612490,0.501515,0.095138
807.645747,1.265909,0.599943
807.679004,1.204545,0.380958
807.712261,2.227273,0.274219
807.745518,4.772727,0.149033
807.778774,17.636364,1.278901
807.812030,44.677273,1.119334
807.845285,96.903030,3.211236
807.878541,177.404545,4.770564
807.911796,120.862121,1.947508
807.945051,33.665909,1.434785
807.978305,9.192424,1.235842
808.011559,4.403030,0.592184
808.044813,3.036364,0.704230
808.078066,1.110606,0.408706
808.111320,1.138636,0.335801
808.144573,1.725000,0.264661
808.177825,0.534091,0.207886
808.211078,1.704545,0.139971
808.244330,0.584091,0.160461
808.277581,0.815909,0.393653
808.310833,0.445455,0.191854
808.344084,0.838636,0.149806
808.377335,0.905303,0.274835
808.410585,0.131061,0.070884
808.443835,0.711364,0.338421
808.477085,1.334091,0.275129
808.510335,0.220455,0.226507
808.543584,0.738636,0.375700
808.576833,0.225000,0.149219
808.610082,0.761364,0.291058
808.643330,0.550000,0.346790
808.676578,1.234091,0.331513
808.709826,0.695455,0.298645
808.743073,0.879545,0.240767
808.776320,0.772727,0.314409
808.809567,0.879545,0.068286
808.842814,1.595455,0.268172
808.876060,1.663636,0.401984
808.909306,0.822727,0.303381
808.942552,1.336364,0.235181
808.975797,0.179545,0.183413
809.009042,0.538636,0.158876
809.042287,0.427273,0.103602
809.075531,0.990909,0.187992
809.108775,1.163636,0.285080
809.142019,0.681818,0.320785
809.175262,0.828030,0.147373
809.208506,2.202273,0.433256
809.241748,1.490909,0.476200
809.274991,0.611364,0.328743
809.308233,2.736364,0.572601
809.341475,0.943182,0.219983
809.374717,0.625000,0.114784
809.407958,0.895455,0.137289
809.441199,1.115909,0.564235
809.474440,0.268182,0.498826
809.507680,-0.938636,0.658239
809.540921,0.038636,0.333284
809.574160,1.952273,0.745963
809.607400,1.575000,0.259477
809.640639,4.102273,0.647511
809.673878,4.690909,0.654064
809.707117,10.146970,0.247226
809.740355,28.076515,1.135659
809.773593,66.179545,2.290364
809.806831,135.807576,3.755481
809.840068,240.037879,5.089930
809.873305,131.749242,5.623113
809.906542,34.159091,0.681830
809.939778,11.715909,1.582489
809.973015,4.294697,0.463210
810.006250,4.619697,0.484560
810.039486,3.625000,0.306361
810.072721,4.825000,1.172090
810.105956,1.884091,0.608033
810.139191,1.728788,0.311762
810.172425,0.838636,0.565086
810.205659,1.847727,0.579535
810.238893,1.727273,0.324913
810.272126,1.740909,0.382865
810.305359,1.500000,0.725431
810.338592,2.604545,0.405202
810.371825,1.522727,0.410119
810.405057,1.229545,0.356918
810.438289,0.890909,0.249773
810.471520,0.623485,0.163638
810.504751,1.934091,0.413329
810.537982,1.809091,0.511863
810.571213,0.609091,0.260998
810.604443,1.438636,0.381904
810.637673,0.895455,0.423600
810.670903,1.229545,0.214779
810.704133,1.659091,0.671417
810.737362,0.675000,0.444739
810.770591,0.518182,0.338537
810.803819,0.570455,0.146070
810.837047,1.563636,0.087905
810.870275,1.186364,0.166406
810.903503,2.079545,0.665202
810.936730,1.734091,0.389577
810.969957,0.547727,0.161679
811.003184,1.161364,0.247975
811.036410,0.763636,0.287264
811.069636,0.841667,0.219489
811.102862,0.592424,0.217846
811.136087,2.486364,0.761343
811.169312,1.909091,0.224736
811.202537,1.470455,0.502662
811.235762,2.115909,0.614540
811.268986,1.645455,0.264868
811.302210,1.427273,0.074620
811.335433,0.947727,0.190919
811.368656,2.143182,0.337075
811.401879,1.322727,0.224655
811.435102,4.168182,0.366262
811.468324,3.392424,0.325439
811.501546,3.331061,0.482579
811.534768,4.118182,0.466956
811.567990,5.105303,0.149484
811.601211,4.697727,1.174107
811.634432,6.852273,0.452271
811.667652,12.888636,0.722301
811.700872,38.888636,0.778988
811.734092,72.406818,3.726873
811.767312,131.886364,3.838997
811.800531,265.521212,5.848753
811.833750,166.329545,2.907298
811.866969,45.268182,3.318469
811.900187,18.377273,0.655913
811.933405,7.370455,0.786662
811.966623,5.297727,1.157152
811.999840,4.309091,0.325691
812.033057,2.047727,0.190350
812.066274,2.229545,0.239821
812.099490,2.206818,0.350846
812.132707,2.459091,0.306768
812.165923,0.372727,0.245665
812.199138,1.895455,0.400471
812.232353,0.754545,0.122896
812.265568,2.800000,0.189933
812.298783,2.781818,0.641827
812.331997,1.652273,0.616093
812.365211,1.915909,0.536589
812.398425,1.688636,0.307085
812.431638,2.586364,0.389446
812.464851,2.761364,0.195200
812.498064,0.960606,0.343019
812.531277,2.059091,0.896046
812.564489,1.395455,0.238485
812.597701,1.193182,0.100380
812.630912,0.793182,0.190296
812.664123,1.597727,0.130494
