#{
#    "background_file": "Backgrounds\\\\bg_787.999nm_13bin_219st_244en_10.0s_110g_4x_5_seq.txt",
#    "ccd_image_settings": [
#        1,
#        13,
#        1,
#        1600,
#        219,
#        244
#    ],
#    "ccd_temperature": "-87",
#    "cdRatios": {
#        "mean": 0.932988376900989,
#        "std": 0.008310011469929927
#    },
#    "center_lambda": 786.0,
#    "comments": "",
#    "dark_region": 6.422078485412794,
#    "date": "10/22/20 15:25:03PM",
#    "eff_field": 1.5,
#    "exposure": 10.0,
#    "fel_lambda": "15.0",
#    "fel_pol": "H",
#    "fel_pulses": 43,
#    "fel_pyro_cal": "0.012",
#    "fel_reprate": "1.07",
#    "fel_transmission": "1.0",
#    "fel_transmission_fits": {
#        "A": 1.0,
#        "C": 0.0,
#        "Mu": 0.0
#    },
#    "fieldInt": {
#        "mean": 5737.061206439393,
#        "std": 259.72762931544287
#    },
#    "fieldStrength": {
#        "mean": 34.742323863636365,
#        "std": 0.8025847329978303
#    },
#    "fpTime": {
#        "mean": 1.2224853291436741,
#        "std": 0.05968562230949643
#    },
#    "gain": 110,
#    "grating": 3,
#    "images_in_sequence": [
#        "hsg_820nm_c123_a45_HAna273.txt",
#        "hsg_820nm_c123_a45_HAna274.txt",
#        "hsg_820nm_c123_a45_HAna275.txt",
#        "hsg_820nm_c123_a45_HAna276.txt"
#    ],
#    "nir_lambda": "819.98",
#    "nir_pola": "45",
#    "nir_polg": "0",
#    "nir_power": "100.0",
#    "pulseEnergies": {
#        "mean": 1.7767045454545454,
#        "std": 0.09251819376506237
#    },
#    "pyroVoltage": {
#        "mean": 0.15878553677772392,
#        "std": 0.009405016727986737
#    },
#    "rotatorAngle": 22.499996337881683,
#    "sample_Temp": "55",
#    "sample_name": "L001218.C1",
#    "series": "820_Fan",
#    "slits": "60",
#    "spec_step": "",
#    "window_trans": 0.92,
#    "y_max": 2,
#    "y_min": 1
#}
#
#
#
#
#
#
#
#
#
#
#
#
#
#
#
#
#
#
#
#
#
#
#
#
#
#
Wavelength,Signal,error
nm,arb. u.,arb.u.
Wavelength,820_Fan,error
759.194366,-0.155303,0.066988
759.228015,-0.354545,0.163447
759.261663,-0.143182,0.055519
759.295311,-0.118182,0.068484
759.328959,-0.097727,0.069188
759.362607,-0.093182,0.055705
759.396254,0.181818,0.085038
759.429901,0.018182,0.070711
759.463548,-0.304545,0.100284
759.497194,-0.002273,0.190432
759.530841,0.093182,0.115904
759.564487,0.134091,0.070078
759.598133,-0.163636,0.038569
759.631779,-0.031061,0.049101
759.665424,0.038636,0.252229
759.699069,-0.022727,0.093015
759.732714,0.090909,0.115887
759.766359,0.015909,0.103571
759.800003,-0.090909,0.115887
759.833648,0.093182,0.111358
759.867292,-0.124242,0.066959
759.900935,-0.095455,0.035428
759.934579,-0.155303,0.018844
759.968222,-0.118182,0.039886
760.001865,-0.093182,0.032201
760.035508,0.031061,0.185569
760.069151,-0.807576,0.082666
760.102793,-0.163636,0.081565
760.136435,0.047727,0.113880
760.170077,0.031061,0.074230
760.203718,-0.093182,0.001968
760.237360,-0.062121,0.049114
760.271001,-0.279545,0.116037
760.304642,0.020455,0.060163
760.338283,-0.050000,0.070528
760.371923,0.031061,0.049101
760.405563,-0.155303,0.049206
760.439203,0.217424,0.037397
760.472843,-0.236364,0.057135
760.506482,0.090909,0.106600
760.540122,0.000000,0.064282
760.573761,0.031061,0.037119
760.607399,-0.310606,0.037689
760.641038,-0.025000,0.087751
760.674676,-0.145455,0.109280
760.708314,-0.403788,0.038081
760.741952,-0.397727,0.063014
760.775589,-0.062121,0.049114
760.809227,-0.310606,0.037689
760.842864,0.090909,0.055670
760.876501,-0.052273,0.097932
760.910137,-0.100000,0.144671
760.943774,0.227273,0.149033
760.977410,0.031061,0.080890
761.011046,0.272727,0.115887
761.044681,0.095455,0.133357
761.078317,-0.400000,0.088374
761.111952,-0.163636,0.067726
761.145587,-0.231818,0.067535
761.179221,-0.062121,0.049114
761.212856,-0.093182,0.032201
761.246490,-0.217424,0.049311
761.280124,-0.124242,0.018741
761.313758,-0.124242,0.037206
761.347391,-0.354545,0.070857
761.381024,0.095455,0.154863
761.414657,-0.279545,0.170178
761.448290,-0.281818,0.087787
761.481923,-0.341667,0.037809
761.515555,-0.559091,0.085854
761.549187,0.155303,0.121729
761.582819,-0.143182,0.045270
761.616450,-0.372727,0.033091
761.650082,-0.062121,0.103328
761.683713,0.124242,0.049167
761.717344,-0.331818,0.111965
761.750974,-0.093182,0.055705
761.784605,-0.496970,0.067726
761.818235,0.217424,0.081017
761.851865,-0.062121,0.080898
761.885494,-0.155303,0.080953
761.919124,-0.022727,0.113067
761.952753,-0.095455,0.080128
761.986382,-0.002273,0.072612
762.020010,-0.714394,0.051363
762.053639,-0.248485,0.067113
762.087267,0.584091,0.329951
762.120895,0.175000,0.319047
762.154523,-0.031061,0.098195
762.188150,-0.093182,0.032201
762.221777,-0.248485,0.019285
762.255404,0.124242,0.018741
762.289031,-0.186364,0.003936
762.322658,-0.031061,0.037119
762.356284,0.068182,0.059047
762.389910,-0.093182,0.032201
762.423536,-0.124242,0.018741
762.457161,-0.093182,0.064313
762.490786,0.113636,0.108402
762.524411,-0.403788,0.038081
762.558036,-0.062121,0.066920
762.591661,-0.031061,0.049101
762.625285,-0.217424,0.019117
762.658909,0.068182,0.019682
762.692533,-0.155303,0.074299
762.726157,0.247727,0.153316
762.759780,-0.124242,0.037206
762.793403,0.113636,0.108402
762.827026,0.113636,0.087286
762.860649,0.204545,0.081153
762.894271,-0.234091,0.069560
762.927893,0.000000,0.096424
762.961515,-0.095455,0.035428
762.995137,0.124242,0.103353
763.028758,-0.188636,0.058685
763.062379,-0.118182,0.068484
763.096000,-0.062121,0.066920
763.129621,0.186364,0.085129
763.163241,-0.281818,0.103951
763.196862,0.250000,0.148599
763.230481,0.062121,0.151899
763.264101,-0.052273,0.107967
763.297721,-0.155303,0.037258
763.331340,-0.093182,0.055705
763.364959,0.222727,0.243543
763.398578,-0.213636,0.091673
763.432196,0.138636,0.081652
763.465814,-0.284091,0.091440
763.499432,0.254545,0.140982
763.533050,0.020455,0.088044
763.566668,-0.259091,0.078302
763.600285,-0.124242,0.037206
763.633902,-0.714394,0.023918
763.667519,-0.281818,0.038836
763.701135,-0.140909,0.040846
763.734752,0.229545,0.171146
763.768368,0.065909,0.248037
763.801984,-0.217424,0.049311
763.835599,-0.236364,0.079772
763.869215,-0.627273,0.096745
763.902830,-0.217424,0.037397
763.936444,-0.095455,0.047835
763.970059,0.093182,0.111358
764.003673,-0.025000,0.021651
764.037288,-0.217424,0.081017
764.070901,-0.445455,0.066339
764.104515,0.031061,0.037119
764.138128,-0.027273,0.089420
764.171742,-0.377273,0.121692
764.205354,-0.209091,0.066959
764.238967,-0.186364,0.055809
764.272580,0.109091,0.101843
764.306192,-0.186364,0.032381
764.339804,-0.062121,0.018603
764.373415,-0.211364,0.069188
764.407027,-0.465909,0.033614
764.440638,0.124242,0.018741
764.474249,-0.163636,0.067726
764.507860,-0.186364,0.032381
764.541470,-0.155303,0.066988
764.575080,-0.100000,0.213830
764.608690,-0.329545,0.074299
764.642300,-0.186364,0.032381
764.675909,0.018182,0.105822
764.709519,0.204545,0.152035
764.743128,-0.188636,0.037119
764.776736,0.088636,0.112282
764.810345,0.279545,0.096604
764.843953,0.020455,0.075404
764.877561,-0.143182,0.055519
764.911169,0.090909,0.085038
764.944776,0.068182,0.067228
764.978384,0.031061,0.066910
765.011991,-0.068182,0.098412
765.045598,-0.279545,0.005905
765.079204,-0.186364,0.003936
765.112810,-0.140909,0.025206
765.146416,-0.124242,0.037206
765.180022,-0.165909,0.042927
765.213628,-0.248485,0.019285
765.247233,-0.186364,0.032381
765.280838,0.111364,0.126963
765.314443,0.062121,0.066920
765.348048,-0.403788,0.038081
765.381652,-0.584091,0.046396
765.415256,0.000000,0.055670
765.448860,-0.045455,0.068182
765.482463,-0.434848,0.081407
765.516067,-0.118182,0.068484
765.549670,-0.306818,0.066988
765.583273,-0.155303,0.018844
765.616875,0.070455,0.049832
765.650478,0.062121,0.018603
765.684080,0.129545,0.187093
765.717682,-0.052273,0.073881
765.751283,-0.652273,0.034970
765.784885,-0.403788,0.067449
765.818486,-0.155303,0.037258
765.852087,-0.047727,0.099346
765.885687,0.070455,0.148699
765.919288,0.177273,0.135661
765.952888,0.111364,0.142309
765.986488,-0.031061,0.018568
766.020087,-0.234091,0.026577
766.053687,-0.213636,0.056909
766.087286,0.156818,0.099864
766.120885,-0.027273,0.083443
766.154484,-0.310606,0.019682
766.188082,-0.234091,0.123163
766.221680,0.031061,0.037119
766.255278,0.254545,0.196140
766.288876,-0.186364,0.032381
766.322473,0.465909,0.140446
766.356070,0.384091,0.244577
766.389667,0.343182,0.225227
766.423264,-0.062121,0.018603
766.456860,0.302273,0.103322
766.490457,0.022727,0.074516
766.524053,0.115909,0.074369
766.557648,-0.070455,0.067449
766.591244,0.062121,0.049114
766.624839,-0.070455,0.020423
766.658434,0.184091,0.054770
766.692029,-0.031061,0.018568
766.725623,0.124242,0.049167
766.759217,0.090909,0.045455
766.792811,0.124242,0.092821
766.826405,0.252273,0.170693
766.859999,0.248485,0.151984
766.893592,-0.377273,0.074239
766.927185,0.527273,0.159545
766.960777,-0.211364,0.041082
766.994370,-0.700000,0.072869
767.027962,-0.217424,0.037397
767.061554,0.062121,0.204128
767.095146,0.043182,0.118765
767.128737,-0.302273,0.049101
767.162329,0.248485,0.177098
767.195920,-0.031061,0.074230
767.229510,-0.248485,0.037483
767.263101,-0.138636,0.103920
767.296691,-0.186364,0.055809
767.330281,0.068182,0.113067
767.363871,-0.054545,0.101436
767.397460,-0.004545,0.108593
767.431050,-0.062121,0.018603
767.464639,-0.256818,0.022355
767.498227,-0.124242,0.018741
767.531816,-0.002273,0.072612
767.565404,-0.093182,0.085060
767.598992,0.161364,0.167947
767.632580,-0.234091,0.052654
767.666168,-0.350000,0.039821
767.699755,0.040909,0.173131
767.733342,0.186364,0.064403
767.766929,0.115909,0.112970
767.800515,-0.031061,0.066910
767.834101,0.043182,0.069337
767.867687,0.184091,0.030555
767.901273,0.429545,0.385633
767.934859,0.124242,0.074273
767.968444,-0.062121,0.018603
768.002029,-0.118182,0.039886
768.035614,-0.372727,0.064763
768.069198,-0.006818,0.139856
768.102783,0.090909,0.055670
768.136367,0.393182,0.289331
768.169950,-0.124242,0.018741
768.203534,-0.168182,0.066920
768.237117,0.062121,0.121692
768.270700,-0.350000,0.145650
768.304283,-0.168182,0.241241
768.337866,0.000000,0.032141
768.371448,0.131818,0.154863
768.405030,-0.072727,0.041161
768.438612,-0.165909,0.053626
768.472193,-0.062121,0.049114
768.505775,-0.002273,0.056625
768.539356,0.070455,0.081335
768.572936,-0.279545,0.055982
768.606517,-0.077273,0.105308
768.640097,-0.165909,0.062521
768.673677,0.115909,0.081017
768.707257,-0.238636,0.077698
768.740836,-0.279545,0.032679
768.774416,0.186364,0.064403
768.807995,-0.124242,0.018741
768.841574,0.204545,0.312242
768.875152,-0.095455,0.073399
768.908730,-0.072727,0.061322
768.942308,0.045455,0.093707
768.975886,0.156818,0.162794
769.009464,0.252273,0.107583
769.043041,0.186364,0.055809
769.076618,0.070455,0.093175
769.110195,0.062121,0.080898
769.143771,-0.350000,0.051174
769.177348,-0.186364,0.003936
769.210924,-0.025000,0.087751
769.244499,-0.115909,0.067065
769.278075,-0.536364,0.052421
769.311650,0.136364,0.039365
769.345225,0.179545,0.137509
769.378800,-0.022727,0.067228
769.412375,-0.115909,0.121771
769.445949,0.045455,0.022727
769.479523,-0.155303,0.049206
769.513097,0.184091,0.054770
769.546670,-0.403788,0.020423
769.580243,-0.124242,0.018741
769.613816,0.090909,0.085038
769.647389,-0.095455,0.047835
769.680962,-0.168182,0.074239
769.714534,0.161364,0.141216
769.748106,0.256818,0.068059
769.781678,-0.050000,0.070528
769.815249,-0.031061,0.037119
769.848820,-0.062121,0.066920
769.882391,-0.062121,0.018603
769.915962,0.134091,0.205185
769.949533,-0.093182,0.055705
769.983103,0.000000,0.032141
770.016673,-0.031818,0.111038
770.050243,-0.590152,0.022355
770.083812,0.088636,0.092059
770.117381,0.155303,0.018844
770.150950,-0.155303,0.018844
770.184519,0.186364,0.140156
770.218088,-0.397727,0.070738
770.251656,-0.279545,0.064553
770.285224,0.040909,0.085129
770.318791,-0.047727,0.122617
770.352359,-0.310606,0.049533
770.385926,-0.341667,0.067295
770.419493,0.031061,0.018568
770.453060,-0.217424,0.019117
770.486626,-0.070455,0.049832
770.520192,-0.093182,0.055705
770.553758,-0.075000,0.091384
770.587324,0.000000,0.064282
770.620890,0.031061,0.018568
770.654455,0.000000,0.111340
770.688020,-0.372727,0.096745
770.721584,-0.050000,0.119464
770.755149,-0.143182,0.045270
770.788713,-0.465909,0.033614
770.822277,0.227273,0.149033
770.855841,-0.124242,0.066959
770.889404,-0.031061,0.018568
770.922967,-0.062121,0.018603
770.956530,-0.118182,0.060473
770.990093,-0.234091,0.026577
771.023655,-0.186364,0.055809
771.057217,-0.240909,0.228937
771.090779,0.063636,0.090568
771.124341,0.020455,0.050858
771.157902,0.159091,0.093015
771.191463,0.310606,0.103528
771.225024,-0.025000,0.059732
771.258585,-0.062121,0.018603
771.292145,0.254545,0.116952
771.325705,0.020455,0.207065
771.359265,-0.279545,0.032679
771.392825,0.000000,0.032141
771.426384,-0.054545,0.111155
771.459943,-0.025000,0.038753
771.493502,0.275000,0.292474
771.527061,-0.027273,0.105333
771.560619,0.225000,0.119632
771.594177,0.320455,0.257639
771.627735,-0.072727,0.041161
771.661293,0.065909,0.060591
771.694850,-0.050000,0.146639
771.728407,0.000000,0.064282
771.761964,-0.124242,0.018741
771.795521,-0.372727,0.033091
771.829077,-0.559091,0.056909
771.862633,-0.155303,0.049206
771.896189,-0.124242,0.049167
771.929744,0.031061,0.080890
771.963300,0.000000,0.032141
771.996855,-0.093182,0.032201
772.030409,-0.279545,0.064553
772.063964,-0.022727,0.049533
772.097518,-0.310606,0.019682
772.131072,0.000000,0.000000
772.164626,-0.095455,0.086334
772.198180,0.640909,0.234025
772.231733,-0.025000,0.038753
772.265286,0.390909,0.200567
772.298839,-0.022727,0.103528
772.332391,0.431818,0.428064
772.365943,-0.045455,0.068182
772.399495,-0.115909,0.049311
772.433047,-0.027273,0.083443
772.466598,0.111364,0.152810
772.500150,0.000000,0.032141
772.533701,-0.118182,0.130716
772.567251,0.000000,0.032141
772.600802,-0.186364,0.032381
772.634352,-0.155303,0.018844
772.667902,-0.581818,0.049376
772.701452,0.484091,0.149841
772.735001,-0.124242,0.049167
772.768550,0.300000,0.133066
772.802099,0.020455,0.050858
772.835648,0.043182,0.104909
772.869196,0.186364,0.064403
772.902744,-0.118182,0.039886
772.936292,0.155303,0.037258
772.969840,-0.025000,0.087751
773.003387,-0.097727,0.076289
773.036934,-0.093182,0.055705
773.070481,0.156818,0.169020
773.104028,-0.095455,0.097569
773.137574,-0.070455,0.020423
773.171120,-0.231818,0.093237
773.204666,-0.186364,0.032381
773.238212,-0.213636,0.107253
773.271757,-0.652273,0.065742
773.305302,0.088636,0.107583
773.338847,0.288636,0.295076
773.372391,0.209091,0.037206
773.405936,-0.248485,0.081057
773.439480,-0.155303,0.037258
773.473024,-0.031061,0.037119
773.506567,0.000000,0.085038
773.540110,-0.124242,0.018741
773.573653,0.000000,0.032141
773.607196,-0.095455,0.073399
773.640739,-0.155303,0.018844
773.674281,-0.072727,0.061322
773.707823,-0.379545,0.148281
773.741365,-0.248485,0.049376
773.774906,-0.310606,0.049533
773.808447,0.243182,0.261381
773.841988,-0.155303,0.037258
773.875529,0.000000,0.032141
773.909070,-0.070455,0.049832
773.942610,-0.093182,0.001968
773.976150,-0.395455,0.151899
774.009689,0.031061,0.066910
774.043229,0.265909,0.309682
774.076768,-0.115909,0.092897
774.110307,0.000000,0.064282
774.143845,-0.047727,0.051363
774.177384,0.254545,0.066183
774.210922,0.290909,0.265899
774.244460,-0.279545,0.032679
774.277997,0.047727,0.104416
774.311535,-0.155303,0.066988
774.345072,0.061364,0.109156
774.378609,-0.070455,0.049832
774.412145,0.109091,0.208398
774.445682,0.177273,0.266627
774.479218,0.136364,0.075378
774.512754,-0.093182,0.064313
774.546289,-0.118182,0.039886
774.579824,-0.310606,0.037689
774.613359,-0.093182,0.032201
774.646894,0.111364,0.088629
774.680429,0.000000,0.032141
774.713963,0.248485,0.112998
774.747497,0.093182,0.032201
774.781031,-0.397727,0.043643
774.814564,-0.031061,0.049101
774.848097,-0.093182,0.055705
774.881630,-0.186364,0.003936
774.915163,-0.050000,0.123712
774.948696,0.115909,0.081017
774.982228,0.086364,0.142350
775.015760,-0.165909,0.042927
775.049291,0.000000,0.064282
775.082823,-0.302273,0.080890
775.116354,-0.256818,0.022355
775.149885,-0.095455,0.057631
775.183416,0.093182,0.115904
775.216946,0.000000,0.032141
775.250476,-0.384091,0.150082
775.284006,-0.155303,0.018844
775.317535,-0.047727,0.023918
775.351065,-0.165909,0.089672
775.384594,-0.155303,0.037258
775.418123,-0.070455,0.038081
775.451651,0.161364,0.086863
775.485180,-0.188636,0.037119
775.518708,-0.310606,0.067228
775.552235,-0.217424,0.049311
775.585763,-0.163636,0.050206
775.619290,-0.700000,0.034317
775.652817,-0.027273,0.069976
775.686344,0.822727,0.629521
775.719870,0.186364,0.222716
775.753397,0.062121,0.133821
775.786923,0.065909,0.068588
775.820448,-0.095455,0.047835
775.853974,-0.090909,0.184637
775.887499,-0.062121,0.037137
775.921024,0.247727,0.194856
775.954549,0.124242,0.049167
775.988073,-0.025000,0.059732
776.021597,-0.031061,0.018568
776.055121,-0.118182,0.068484
776.088645,0.093182,0.032201
776.122168,-0.093182,0.111358
776.155691,0.090909,0.032141
776.189214,0.118182,0.149171
776.222737,-0.155303,0.080953
776.256259,0.113636,0.103528
776.289781,0.136364,0.093707
776.323303,-0.050000,0.095427
776.356824,-0.215909,0.127936
776.390346,0.022727,0.145081
776.423867,-0.031061,0.066910
776.457387,-0.403788,0.020423
776.490908,0.156818,0.088920
776.524428,-0.163636,0.038569
776.557948,0.093182,0.032201
776.591468,-0.095455,0.035428
776.624987,-0.045455,0.068182
776.658506,0.031061,0.018568
776.692025,0.000000,0.032141
776.725544,0.022727,0.067228
776.759062,0.124242,0.129924
776.792581,-0.281818,0.081692
776.826099,0.155303,0.074299
776.859616,-0.186364,0.055809
776.893134,0.090909,0.032141
776.926651,0.155303,0.066988
776.960167,-0.254545,0.167751
776.993684,0.234091,0.105057
777.027200,0.550000,0.338957
777.060716,0.015909,0.137810
777.094232,-0.093182,0.032201
777.127748,-0.115909,0.049311
777.161263,-0.070455,0.049832
777.194778,0.363636,0.289271
777.228293,-0.155303,0.018844
777.261807,-0.838636,0.036699
777.295322,0.000000,0.032141
777.328836,-0.062121,0.049114
777.362349,-0.093182,0.085060
777.395863,-0.143182,0.055519
777.429376,0.309091,0.416052
777.462889,-0.095455,0.047835
777.496401,-0.165909,0.062521
777.529914,-0.093182,0.032201
777.563426,-0.047727,0.040064
777.596938,-0.052273,0.107967
777.630449,-0.031061,0.018568
777.663961,0.062121,0.066920
777.697472,-0.279545,0.005905
777.730983,0.031061,0.037119
777.764493,0.155303,0.151929
777.798004,0.247727,0.205185
777.831514,-0.350000,0.068446
777.865023,-0.372727,0.064763
777.898533,-0.165909,0.062521
777.932042,0.124242,0.049167
777.965551,-0.052273,0.097932
777.999060,-0.248485,0.019285
778.032568,0.093182,0.032201
778.066076,0.088636,0.133313
778.099584,-0.124242,0.066959
778.133092,-0.186364,0.032381
778.166599,-0.072727,0.041161
778.200107,-0.124242,0.018741
778.233613,-0.329545,0.080953
778.267120,-0.004545,0.067535
778.300626,-0.047727,0.023918
778.334132,-0.155303,0.049206
778.367638,0.186364,0.115954
778.401144,-0.062121,0.049114
778.434649,0.272727,0.238366
778.468154,-0.124242,0.066959
778.501659,0.065909,0.082282
778.535163,-0.186364,0.032381
778.568668,-0.062121,0.049114
778.602172,-0.027273,0.069976
778.635675,-0.155303,0.049206
778.669179,-0.022727,0.081153
778.702682,0.000000,0.000000
778.736185,-0.331818,0.085854
778.769688,-0.248485,0.019285
778.803190,0.031061,0.049101
778.836692,0.179545,0.125736
778.870194,-0.070455,0.103671
778.903696,-0.124242,0.049167
778.937197,0.138636,0.021651
778.970698,-0.050000,0.053926
779.004199,-0.341667,0.049624
779.037699,-0.072727,0.076331
779.071200,-0.341667,0.019911
779.104700,-0.124242,0.018741
779.138199,-0.186364,0.032381
779.171699,0.000000,0.032141
779.205198,-0.163636,0.050206
779.238697,-0.070455,0.067449
779.272196,-0.124242,0.080930
779.305694,-0.186364,0.003936
779.339192,-0.050000,0.095427
779.372690,0.250000,0.117546
779.406188,0.065909,0.138445
779.439685,-0.217424,0.049311
779.473182,-0.155303,0.066988
779.506679,-0.093182,0.032201
779.540176,-0.124242,0.018741
779.573672,0.155303,0.037258
779.607168,0.088636,0.185206
779.640664,-0.054545,0.143596
779.674160,-0.070455,0.038081
779.707655,0.070455,0.081335
779.741150,0.124242,0.018741
779.774644,-0.186364,0.111410
779.808139,-0.248485,0.019285
779.841633,-0.217424,0.049311
779.875127,0.000000,0.055670
779.908621,0.231818,0.049948
779.942114,0.486364,0.262960
779.975607,0.159091,0.059047
780.009100,-0.209091,0.049167
780.042593,-0.004545,0.134129
780.076085,0.155303,0.037258
780.109577,0.000000,0.055670
780.143069,0.062121,0.049114
780.176560,-0.279545,0.005905
780.210052,-0.248485,0.049376
780.243543,0.175000,0.212068
780.277033,-0.002273,0.085666
780.310524,-0.186364,0.064403
780.344014,-0.124242,0.092821
780.377504,0.062121,0.121692
780.410994,-0.143182,0.055519
780.444483,0.020455,0.060163
780.477972,0.000000,0.032141
780.511461,-0.031061,0.018568
780.544950,0.065909,0.277522
780.578438,-0.155303,0.049206
780.611926,0.020455,0.039414
780.645414,0.000000,0.032141
780.678902,-0.143182,0.096337
780.712389,0.088636,0.057530
780.745876,0.093182,0.032201
780.779363,-0.150000,0.141330
780.812849,0.422727,0.230735
780.846335,-0.093182,0.032201
780.879821,0.015909,0.209248
780.913307,-0.248485,0.037483
780.946792,-0.075000,0.182056
780.980277,-0.031061,0.018568
781.013762,-0.155303,0.049206
781.047247,-0.418182,0.081057
781.080731,-0.124242,0.066959
781.114215,-0.155303,0.049206
781.147699,-0.309091,0.097277
781.181183,-0.341667,0.037809
781.214666,-0.217424,0.037397
781.248149,-0.331818,0.091673
781.281632,-0.261364,0.094222
781.315114,0.025000,0.141763
781.348596,0.161364,0.058421
781.382078,0.310606,0.103528
781.415560,-0.093182,0.032201
781.449041,0.031061,0.049101
781.482522,-0.045455,0.081944
781.516003,0.043182,0.118765
781.549484,-0.122727,0.152578
781.582964,-0.093182,0.032201
781.616444,-0.254545,0.086483
781.649924,0.000000,0.000000
781.683404,-0.031061,0.018568
781.716883,0.161364,0.058421
781.750362,0.045455,0.050820
781.783841,-0.310606,0.103528
781.817319,-0.372727,0.033091
781.850797,-0.031818,0.175854
781.884275,0.206818,0.133507
781.917753,0.118182,0.196929
781.951230,-0.093182,0.032201
781.984707,-0.062121,0.066920
782.018184,-0.027273,0.114722
782.051661,-0.002273,0.046619
782.085137,-0.120455,0.111033
782.118613,0.000000,0.000000
782.152089,0.204545,0.087286
782.185564,-0.075000,0.072469
782.219040,-0.124242,0.098228
782.252515,0.161364,0.036699
782.285989,-0.075000,0.072469
782.319464,-0.590152,0.039151
782.352938,0.062121,0.018603
782.386412,-0.027273,0.083443
782.419885,0.022727,0.019682
782.453359,-0.341667,0.019911
782.486832,-0.186364,0.055809
782.520305,-0.054545,0.181705
782.553777,-0.031061,0.037119
782.587249,-0.186364,0.064403
782.620721,0.068182,0.037689
782.654193,-0.050000,0.043301
782.687665,-0.310606,0.098412
782.721136,0.229545,0.174138
782.754607,0.020455,0.104168
782.788077,-0.124242,0.037206
782.821548,-0.124242,0.037206
782.855018,-0.093182,0.032201
782.888488,-0.165909,0.062521
782.921957,0.181818,0.090909
782.955427,0.000000,0.032141
782.988896,0.156818,0.297465
783.022365,0.047727,0.113880
783.055833,-0.068182,0.087286
783.089301,0.020455,0.155823
783.122769,-0.259091,0.055064
783.156237,0.040909,0.078828
783.189704,-0.140909,0.082666
783.223172,0.000000,0.085038
783.256638,0.093182,0.055705
783.290105,0.248485,0.067113
783.323571,0.590152,0.162253
783.357037,0.161364,0.086863
783.390503,-0.047727,0.075745
783.423969,-0.075000,0.072469
783.457434,-0.155303,0.037258
783.490899,0.113636,0.059047
783.524364,0.090909,0.078730
783.557828,0.113636,0.059047
783.591292,0.022727,0.133975
783.624756,-0.093182,0.032201
783.658220,-0.248485,0.049376
783.691683,0.022727,0.019682
783.725146,0.031061,0.037119
783.758609,0.043182,0.094551
783.792072,-0.062121,0.018603
783.825534,-0.031061,0.018568
783.858996,-0.256818,0.022355
783.892458,0.000000,0.032141
783.925919,0.090909,0.071870
783.959381,0.065909,0.168715
783.992842,-0.163636,0.021320
784.026302,-0.118182,0.068484
784.059763,-0.031061,0.049101
784.093223,-0.155303,0.018844
784.126683,-0.279545,0.032679
784.160142,0.000000,0.064282
784.193601,-0.304545,0.042336
784.227060,-0.093182,0.064313
784.260519,-0.186364,0.032381
784.293978,0.248485,0.037483
784.327436,0.113636,0.074516
784.360894,-0.248485,0.019285
784.394352,-0.124242,0.037206
784.427809,-0.190909,0.115261
784.461266,-0.559091,0.034242
784.494723,0.000000,0.055670
784.528180,-0.031061,0.018568
784.561636,0.225000,0.205437
784.595092,-0.217424,0.049311
784.628548,-0.097727,0.088804
784.662003,0.062121,0.018603
784.695458,-0.155303,0.037258
784.728913,-0.248485,0.092932
784.762368,-0.062121,0.037137
784.795823,0.015909,0.121899
784.829277,0.063636,0.150550
784.862731,-0.025000,0.038753
784.896184,0.018182,0.205402
784.929637,-0.070455,0.074715
784.963091,-0.050000,0.095427
784.996543,0.000000,0.032141
785.029996,0.302273,0.103322
785.063448,0.031061,0.037119
785.096900,0.177273,0.207840
785.130352,0.310606,0.113067
785.163803,-0.124242,0.066959
785.197254,0.254545,0.086483
785.230705,0.022727,0.113067
785.264156,-0.163636,0.103851
785.297606,0.031061,0.049101
785.331056,0.000000,0.085038
785.364506,-0.165909,0.062521
785.397955,-0.155303,0.049206
785.431405,0.000000,0.032141
785.464854,-0.093182,0.001968
785.498302,-0.093182,0.032201
785.531751,-0.025000,0.059732
785.565199,-0.072727,0.104841
785.598647,-0.034091,0.231425
785.632094,-0.050000,0.053926
785.665542,0.000000,0.032141
785.698989,-0.217424,0.074369
785.732436,0.000000,0.085038
785.765882,-0.025000,0.067831
785.799328,0.020455,0.088044
785.832774,0.086364,0.226396
785.866220,0.065909,0.068588
785.899665,-0.004545,0.108593
785.933111,-0.031061,0.018568
785.966555,-0.031061,0.049101
786.000000,0.234091,0.159686
786.033444,-0.118182,0.068484
786.066888,-0.115909,0.049311
786.100332,-0.279545,0.005905
786.133776,-0.124242,0.037206
786.167219,0.093182,0.055705
786.200662,0.113636,0.059047
786.234104,0.065909,0.094003
786.267547,-0.248485,0.049376
786.300989,-0.168182,0.087049
786.334431,0.111364,0.152810
786.367872,-0.279545,0.096604
786.401314,-0.062121,0.018603
786.434755,0.065909,0.082282
786.468196,0.015909,0.182905
786.501636,-0.186364,0.032381
786.535076,-0.031061,0.066910
786.568516,-0.062121,0.037137
786.601956,-0.155303,0.049206
786.635395,0.031061,0.103322
786.668834,0.186364,0.003936
786.702273,-0.093182,0.032201
786.735712,0.184091,0.115457
786.769150,-0.072727,0.061322
786.802588,-0.115909,0.067065
786.836026,0.045455,0.050820
786.869463,-0.062121,0.098202
786.902900,0.186364,0.096504
786.936337,-0.045455,0.130558
786.969774,0.654545,0.257611
787.003210,0.070455,0.081335
787.036646,0.062121,0.049114
787.070082,-0.095455,0.057631
787.103518,0.134091,0.095095
787.136953,0.436364,0.353320
787.170388,-0.062121,0.018603
787.203823,-0.097727,0.159525
787.237257,-0.124242,0.018741
787.270691,0.062121,0.049114
787.304125,-0.140909,0.025206
787.337559,0.062121,0.018603
787.370992,0.031061,0.066910
787.404425,-0.279545,0.005905
787.437858,0.113636,0.037689
787.471290,0.118182,0.130716
787.504723,0.040909,0.124545
787.538155,-0.350000,0.051174
787.571586,-0.124242,0.037206
787.605018,0.209091,0.144957
787.638449,0.031061,0.049101
787.671880,-0.027273,0.069976
787.705310,-0.188636,0.074230
787.738741,-0.155303,0.037258
787.772171,-0.022727,0.074516
787.805600,0.031061,0.049101
787.839030,-0.093182,0.032201
787.872459,-0.248485,0.037483
787.905888,-0.070455,0.049832
787.939317,-0.031061,0.066910
787.972745,-0.140909,0.122874
788.006173,0.018182,0.070711
788.039601,-0.186364,0.064403
788.073028,0.197727,0.282008
788.106456,0.131818,0.133357
788.139883,0.268182,0.327801
788.173309,0.093182,0.032201
788.206736,-0.075000,0.085545
788.240162,-0.031061,0.018568
788.273588,-0.279545,0.032679
788.307013,-0.279545,0.032679
788.340439,-0.070455,0.020423
788.373864,-0.256818,0.081842
788.407288,0.115909,0.129978
788.440713,0.022727,0.037689
788.474137,-0.403788,0.038081
788.507561,-0.031061,0.066910
788.540985,-0.120455,0.055052
788.574408,-0.217424,0.019117
788.607831,0.113636,0.074516
788.641254,0.000000,0.000000
788.674677,-0.217424,0.037397
788.708099,-0.124242,0.018741
788.741521,-0.124242,0.049167
788.774943,-0.093182,0.085060
788.808364,0.243182,0.187782
788.841785,0.343182,0.176349
788.875206,0.590152,0.165406
788.908627,0.000000,0.055670
788.942047,-0.002273,0.046619
788.975467,-0.190909,0.135832
789.008887,-0.031061,0.018568
789.042306,0.134091,0.258639
789.075726,0.138636,0.050347
789.109145,-0.115909,0.049311
789.142563,-0.124242,0.037206
789.175982,-0.070455,0.098563
789.209400,-0.155303,0.018844
789.242817,-0.072727,0.088840
789.276235,-0.072727,0.076331
789.309652,0.250000,0.191166
789.343069,-0.097727,0.088804
789.376486,0.155303,0.037258
789.409902,0.179545,0.196308
789.443319,-0.302273,0.074230
789.476735,-0.155303,0.037258
789.510150,0.040909,0.124545
789.543565,0.020455,0.039414
789.576980,-0.248485,0.037483
789.610395,-0.062121,0.018603
789.643810,-0.062121,0.037137
789.677224,-0.217424,0.019117
789.710638,-0.095455,0.073399
789.744052,-0.327273,0.042640
789.777465,-0.050000,0.077506
789.810878,-0.168182,0.074239
789.844291,-0.163636,0.038569
789.877703,-0.190909,0.070857
789.911116,-0.093182,0.085060
789.944528,-0.093182,0.032201
789.977939,-0.070455,0.020423
790.011351,0.065909,0.068588
790.044762,-0.031061,0.018568
790.078173,0.020455,0.050858
790.111583,-0.027273,0.114722
790.144994,-0.186364,0.032381
790.178404,-0.062121,0.018603
790.211813,0.043182,0.052359
790.245223,-0.000000,0.085038
790.278632,0.231818,0.049948
790.312041,0.250000,0.087286
790.345450,0.179545,0.185485
790.378858,0.070455,0.067449
790.412266,-0.115909,0.049311
790.445674,-0.025000,0.038753
790.479081,0.090909,0.106600
790.512488,0.000000,0.032141
790.545895,-0.031818,0.111038
790.579302,0.115909,0.067065
790.612708,0.186364,0.147342
790.646115,0.665909,0.167424
790.679520,1.088636,0.263487
790.712926,0.683333,0.520782
790.746331,0.000000,0.111340
790.779736,-0.025000,0.059732
790.813141,-0.004545,0.126193
790.846545,-0.068182,0.141476
790.879949,0.179545,0.167947
790.913353,0.047727,0.068588
790.946757,-0.815909,0.030555
790.980160,-0.714394,0.051363
791.013563,-0.070455,0.049832
791.046966,0.043182,0.094551
791.080368,-0.120455,0.166806
791.113771,0.115909,0.133893
791.147173,-0.163636,0.050206
791.180574,-0.050000,0.077506
791.213976,-0.093182,0.064313
791.247377,0.225000,0.226940
791.280777,-0.093182,0.001968
791.314178,-0.559091,0.056909
791.347578,-0.248485,0.049376
791.380978,-0.186364,0.032381
791.414378,0.093182,0.085060
791.447777,0.124242,0.049167
791.481176,0.090909,0.055670
791.514575,-0.070455,0.067449
791.547973,0.186364,0.225023
791.581372,0.229545,0.199052
791.614770,-0.310606,0.081153
791.648167,0.155303,0.092842
791.681565,-0.120455,0.115591
791.714962,-0.236364,0.079772
791.748359,0.136364,0.226134
791.781755,0.413636,0.120326
791.815152,-0.075000,0.107005
791.848548,-0.256818,0.050654
791.881943,0.129545,0.187093
791.915339,-0.062121,0.049114
791.948734,0.134091,0.100380
791.982129,-0.002273,0.079407
792.015523,0.088636,0.073320
792.048918,-0.120455,0.096068
792.082312,-0.031061,0.018568
792.115705,-0.209091,0.080930
792.149099,-0.259091,0.044710
792.182492,0.000000,0.055670
792.215885,-0.095455,0.035428
792.249278,-0.072727,0.041161
792.282670,-0.217424,0.019117
792.316062,0.090909,0.055670
792.349454,-0.052273,0.103071
792.382845,-0.143182,0.078623
792.416236,0.186364,0.032381
792.449627,-0.072727,0.041161
792.483018,-0.062121,0.133821
792.516408,0.045455,0.130558
792.549798,0.615909,0.382742
792.583188,1.418182,0.259847
792.616578,0.765909,0.292262
792.649967,0.415909,0.064952
792.683356,-0.031061,0.066910
792.716745,-0.234091,0.052654
792.750133,-0.528030,0.038753
792.783521,-0.211364,0.061269
792.816909,-0.465909,0.009841
792.850296,0.047727,0.082282
792.883684,-0.279545,0.064553
792.917071,-0.140909,0.051975
792.950457,0.124242,0.066959
792.983844,-0.124242,0.144957
793.017230,0.227273,0.093707
793.050616,0.063636,0.192687
793.084001,-0.163636,0.050206
793.117386,0.347727,0.255485
793.150771,0.000000,0.032141
793.184156,0.115909,0.133893
793.217541,0.302273,0.158550
793.250925,-0.031061,0.066910
793.284309,-0.093182,0.055705
793.317692,0.070455,0.130177
793.351075,0.065909,0.082282
793.384458,-0.124242,0.049167
793.417841,0.000000,0.055670
793.451223,0.043182,0.052359
793.484606,0.300000,0.206155
793.517988,-0.050000,0.135661
793.551369,0.522727,0.401926
793.584750,-0.002273,0.072612
793.618131,-0.279545,0.032679
793.651512,-0.031061,0.037119
793.684893,-0.124242,0.066959
793.718273,-0.070455,0.067449
793.751653,0.047727,0.104416
793.785032,-0.217424,0.019117
793.818411,-0.155303,0.037258
793.851790,0.290909,0.239317
793.885169,-0.186364,0.003936
793.918548,0.217424,0.049311
793.951926,0.206818,0.073671
793.985304,0.310606,0.113067
794.018681,-0.248485,0.049376
794.052059,-0.045455,0.068182
794.085436,-0.217424,0.049311
794.118812,-0.120455,0.055052
794.152189,-0.025000,0.087751
794.185565,-0.062121,0.074239
794.218941,-0.559091,0.034242
794.252317,0.031061,0.018568
794.285692,-0.095455,0.035428
794.319067,0.155303,0.049206
794.352442,0.175000,0.165562
794.385816,0.695455,0.264526
794.419190,1.515909,0.287540
794.452564,1.795455,0.312242
794.485938,3.006818,0.503432
794.519311,-0.031061,0.018568
794.552684,0.513636,0.163684
794.586057,-0.190909,0.156999
794.619429,0.113636,0.074516
794.652802,-0.213636,0.193209
794.686173,0.090909,0.085038
794.719545,0.279545,0.064553
794.752916,0.400000,0.168734
794.786287,-0.093182,0.064313
794.819658,0.177273,0.266627
794.853029,-0.161364,0.098037
794.886399,-0.050000,0.053926
794.919769,-0.093182,0.064313
794.953138,0.093182,0.032201
794.986508,0.113636,0.049533
795.019877,0.068182,0.037689
795.053245,-0.165909,0.062521
795.086614,0.000000,0.055670
795.119982,-0.217424,0.019117
795.153350,0.318182,0.277422
795.186718,-0.072727,0.104841
795.220085,-0.093182,0.055705
795.253452,-0.545455,0.150756
795.286819,-0.279545,0.005905
795.320185,0.062121,0.074239
795.353551,-0.536364,0.076466
795.386917,0.088636,0.125325
795.420283,-0.248485,0.037483
795.453648,-0.002273,0.079407
795.487013,0.065909,0.171749
795.520378,0.254545,0.035791
795.553742,-0.077273,0.139120
795.587107,-0.075000,0.091384
795.620471,-0.310606,0.098412
795.653834,-0.140909,0.051975
795.687197,-0.095455,0.047835
795.720560,-0.093182,0.085060
795.753923,-0.248485,0.019285
795.787286,-0.186364,0.003936
795.820648,-0.072727,0.052223
795.854010,-0.070455,0.067449
795.887371,0.045455,0.099066
795.920733,0.159091,0.199107
795.954094,0.045455,0.113636
795.987454,0.000000,0.032141
796.020815,0.015909,0.117585
796.054175,-0.354545,0.110689
796.087535,-0.248485,0.019285
796.120894,-0.115909,0.049311
796.154254,-0.093182,0.001968
796.187613,0.124242,0.018741
796.220971,0.209091,0.129924
796.254330,0.652273,0.140776
796.287688,0.652273,0.034970
796.321046,2.227273,0.378257
796.354403,4.534848,0.395239
796.387761,4.322727,0.196075
796.421118,1.379545,0.459388
796.454474,0.486364,0.246745
796.487831,0.265909,0.219959
796.521187,-0.025000,0.038753
796.554543,0.000000,0.032141
796.587898,-0.027273,0.069976
796.621254,-0.045455,0.068182
796.654609,0.063636,0.244654
796.687963,-0.186364,0.003936
796.721318,0.231818,0.049948
796.754672,0.184091,0.101149
796.788026,-0.095455,0.057631
796.821379,0.062121,0.018603
796.854732,-0.145455,0.126785
796.888085,0.031061,0.049101
796.921438,0.038636,0.202218
796.954790,0.161364,0.058421
796.988142,-0.190909,0.135832
797.021494,0.134091,0.070078
797.054846,-0.217424,0.019117
797.088197,0.062121,0.049114
797.121548,-0.186364,0.032381
797.154899,-0.047727,0.023918
797.188249,-0.140909,0.069048
797.221599,0.522727,0.257882
797.254949,0.090909,0.032141
797.288298,0.088636,0.086266
797.321648,-0.031061,0.049101
797.354996,-0.097727,0.076289
797.388345,0.295455,0.130063
797.421693,-0.168182,0.108211
797.455041,-0.528030,0.050347
797.488389,0.209091,0.133840
797.521737,0.045455,0.068182
797.555084,0.000000,0.055670
797.588431,-0.165909,0.042927
797.621777,0.062121,0.151899
797.655124,-0.072727,0.052223
797.688470,0.000000,0.085038
797.721815,-0.434848,0.074793
797.755161,0.248485,0.130003
797.788506,0.252273,0.137133
797.821851,0.109091,0.181932
797.855196,0.652273,0.335847
797.888540,-0.031061,0.018568
797.921884,-0.341667,0.049624
797.955228,0.104545,0.183332
797.988571,0.350000,0.082165
798.021914,0.472727,0.205402
798.055257,0.062121,0.121692
798.088599,0.217424,0.129978
798.121942,0.643182,0.319532
798.155284,0.570455,0.289010
798.188625,3.029545,0.354915
798.221967,2.848485,0.420301
798.255308,5.965909,0.808876
798.288649,2.809091,0.658589
798.321989,0.714394,0.159265
798.355329,0.040909,0.253111
798.388669,-0.062121,0.074239
798.422009,-0.050000,0.053926
798.455348,-0.002273,0.107102
798.488687,0.090909,0.085038
798.522026,0.065909,0.122617
798.555365,-0.372727,0.033091
798.588703,-0.347727,0.116703
798.622041,-0.093182,0.032201
798.655378,-0.031061,0.049101
798.688716,0.062121,0.037137
798.722053,0.229545,0.174138
798.755389,-0.093182,0.032201
798.788726,0.000000,0.085038
798.822062,0.018182,0.070711
798.855398,-0.188636,0.037119
798.888733,0.138636,0.038753
798.922069,0.111364,0.104663
798.955404,-0.093182,0.001968
798.988738,0.031061,0.074230
799.022073,-0.072727,0.052223
799.055407,0.000000,0.032141
799.088741,0.093182,0.055705
799.122074,0.022727,0.049533
799.155408,-0.186364,0.003936
799.188741,0.031061,0.049101
799.222073,0.340909,0.322014
799.255406,0.404545,0.327486
799.288738,0.043182,0.228754
799.322069,0.293182,0.252679
799.355401,0.186364,0.115954
799.388732,-0.165909,0.089672
799.422063,-0.443182,0.051764
799.455394,-0.124242,0.037206
799.488724,-0.093182,0.032201
799.522054,0.204545,0.141476
799.555384,0.090909,0.032141
799.588713,-0.031818,0.153926
799.622042,-0.052273,0.151725
799.655371,0.124242,0.049167
799.688700,-0.188636,0.058685
799.722028,-0.124242,0.049167
799.755356,0.343182,0.173395
799.788684,0.161364,0.086863
799.822011,0.000000,0.096424
799.855338,0.040909,0.238398
799.888665,-0.248485,0.037483
799.921992,-0.031061,0.066910
799.955318,0.415909,0.182056
799.988644,0.320455,0.097774
800.021969,0.688636,0.267340
800.055295,1.254545,0.571391
800.088620,3.170455,0.959723
800.121945,6.305303,0.230665
800.155269,9.087121,0.848254
800.188593,10.778030,0.869302
800.221917,1.936364,0.427297
800.255241,0.984091,0.717321
800.288564,0.217424,0.081017
800.321887,0.155303,0.080953
800.355210,0.256818,0.122322
800.388532,-0.165909,0.062521
800.421854,-0.097727,0.069188
800.455176,0.279545,0.055982
800.488498,0.211364,0.171989
800.521819,0.506818,0.212676
800.555140,-0.124242,0.080930
800.588461,0.206818,0.073671
800.621781,0.636364,0.210764
800.655101,0.368182,0.183557
800.688421,0.229545,0.067065
800.721740,-0.186364,0.032381
800.755060,0.225000,0.160235
800.788379,-0.155303,0.037258
800.821697,-0.025000,0.087751
800.855015,-0.031061,0.037119
800.888334,0.206818,0.151623
800.921651,-0.175000,0.211336
800.954969,0.093182,0.032201
800.988286,0.347727,0.112190
801.021603,-0.093182,0.085060
801.054919,0.159091,0.152035
801.088235,-0.062121,0.158554
801.121551,-0.155303,0.080953
801.154867,-0.341667,0.019911
801.188183,0.113636,0.103528
801.221498,-0.403788,0.067449
801.254812,0.248485,0.019285
801.288127,0.436364,0.246546
801.321441,0.093182,0.032201
801.354755,0.156818,0.123037
801.388069,1.188636,0.275242
801.421382,-0.031061,0.049101
801.454695,0.247727,0.325808
801.488008,0.059091,0.174083
801.521320,-0.124242,0.049167
801.554632,0.265909,0.184172
801.587944,0.043182,0.052359
801.621256,-0.259091,0.078302
801.654567,-0.093182,0.032201
801.687878,-0.281818,0.075103
801.721189,0.062121,0.121692
801.754499,-0.124242,0.037206
801.787809,-0.186364,0.032381
801.821119,-0.279545,0.055982
801.854428,0.068182,0.336141
801.887737,0.206818,0.148177
801.921046,0.496970,0.219032
801.954355,0.465909,0.128941
801.987663,2.034091,0.746094
802.020971,6.088636,0.470519
802.054279,11.993182,1.093998
802.087586,17.354545,1.002610
802.120894,10.693182,0.359125
802.154200,2.454545,0.270827
802.187507,1.370455,0.699346
802.220813,0.093182,0.085060
802.254119,0.093182,0.055705
802.287425,0.090909,0.071870
802.320730,-0.217424,0.067065
802.354035,0.015909,0.098458
802.387340,0.015909,0.182905
802.420644,-0.186364,0.064403
802.453949,-0.062121,0.158554
802.487252,-0.304545,0.042336
802.520556,0.295455,0.315533
802.553859,0.062121,0.049114
802.587162,0.300000,0.097171
802.620465,0.252273,0.092059
802.653767,0.022727,0.049533
802.687069,0.177273,0.212752
802.720371,0.109091,0.136515
802.753673,0.020455,0.050858
802.786974,-0.122727,0.113795
802.820275,0.279545,0.096604
802.853576,0.093182,0.032201
802.886876,0.252273,0.218475
802.920176,-0.120455,0.071392
802.953476,-0.445455,0.066339
802.986775,-0.093182,0.064313
803.020074,-0.093182,0.001968
803.053373,-0.031061,0.018568
803.086672,0.134091,0.105400
803.119970,-0.186364,0.032381
803.153268,-0.248485,0.067113
803.186565,-0.400000,0.068635
803.219863,0.045455,0.152459
803.253160,-0.062121,0.066920
803.286457,0.547727,0.232894
803.319753,-0.161364,0.086863
803.353049,0.565909,0.370815
803.386345,0.336364,0.223930
803.419641,0.527273,0.168978
803.452936,-0.093182,0.055705
803.486231,0.336364,0.357245
803.519525,0.084091,0.267437
803.552820,0.022727,0.049533
803.586114,0.438636,0.169722
803.619408,0.062121,0.066920
803.652701,0.124242,0.066959
803.685994,0.434091,0.136378
803.719287,0.403788,0.152133
803.752580,-0.050000,0.095427
803.785872,0.000000,0.032141
803.819164,0.272727,0.140100
803.852456,0.403788,0.241388
803.885747,0.868182,0.285705
803.919038,4.295455,0.608459
803.952329,9.256061,0.289869
803.985620,14.567424,0.905666
804.018910,23.284091,2.256898
804.052200,13.076515,0.612527
804.085489,3.106061,0.466325
804.118779,0.652273,0.147933
804.152068,0.515909,0.231179
804.185357,-0.125000,0.182792
804.218645,0.229545,0.067065
804.251933,0.359091,0.206343
804.285221,-0.155303,0.049206
804.318508,-0.217424,0.067065
804.351796,0.522727,0.312242
804.385083,0.065909,0.082282
804.418369,-0.248485,0.049376
804.451656,0.086364,0.162671
804.484942,0.113636,0.155395
804.518227,0.043182,0.069337
804.551513,0.322727,0.121181
804.584798,0.359091,0.173726
804.618083,0.124242,0.103353
804.651367,0.795455,0.239177
804.684652,-0.434848,0.049948
804.717936,0.062121,0.066920
804.751219,0.275000,0.095367
804.784503,-0.031061,0.018568
804.817786,-0.054545,0.139953
804.851068,-0.093182,0.032201
804.884351,0.109091,0.187524
804.917633,0.040909,0.278379
804.950915,-0.341667,0.067295
804.984196,0.341667,0.093064
805.017478,-0.125000,0.209150
805.050759,-0.022727,0.049533
805.084039,0.163636,0.050206
805.117320,0.156818,0.082908
805.150600,0.040909,0.096504
805.183879,0.062121,0.151899
805.217159,-0.031061,0.049101
805.250438,0.090909,0.136364
805.283717,-0.002273,0.136756
805.316995,-0.240909,0.231182
805.350274,0.365909,0.237723
805.383552,0.704545,0.399347
805.416829,-0.124242,0.018741
805.450107,0.595455,0.281332
805.483384,0.070455,0.103671
805.516660,0.209091,0.112907
805.549937,-0.186364,0.055809
805.583213,0.420455,0.229182
805.616489,0.181818,0.213201
805.649764,0.615909,0.382742
805.683040,-0.120455,0.115591
805.716315,0.009091,0.276975
805.749589,0.388636,0.154324
805.782864,1.242424,0.323015
805.816138,1.832576,0.240058
805.849411,6.833333,0.434204
805.882685,15.654545,0.603742
805.915958,34.245455,1.591474
805.949231,53.902273,4.016615
805.982504,28.333333,1.659869
806.015776,9.442424,0.472203
806.049048,2.809091,0.363437
806.082319,2.006818,0.480975
806.115591,0.155303,0.080953
806.148862,0.713636,0.096075
806.182133,-0.072727,0.168978
806.215403,0.248485,0.081057
806.248673,0.468182,0.255386
806.281943,0.840909,0.476054
806.315213,0.436364,0.160191
806.348482,-0.279545,0.085242
806.381751,0.370455,0.083405
806.415019,0.115909,0.133893
806.448288,0.352273,0.170360
806.481556,0.368182,0.051975
806.514823,0.336364,0.212083
806.548091,0.154545,0.220677
806.581358,0.315909,0.384291
806.614625,0.202273,0.127369
806.647891,0.124242,0.103353
806.681158,0.093182,0.055705
806.714424,-0.002273,0.056625
806.747689,0.347727,0.065742
806.780955,-0.115909,0.067065
806.814220,0.093182,0.032201
806.847484,0.031061,0.129899
806.880749,0.155303,0.112924
806.914013,0.093182,0.064313
806.947277,-0.302273,0.074230
806.980540,0.068182,0.279046
807.013803,-0.372727,0.056224
807.047066,-0.488636,0.066988
807.080329,0.220455,0.300110
807.113591,0.297727,0.315170
807.146853,0.320455,0.121346
807.180115,-0.211364,0.041082
807.213376,0.468182,0.299336
807.246637,0.302273,0.066910
807.279898,0.479545,0.311544
807.313159,0.093182,0.096444
807.346419,-0.027273,0.123399
807.379679,-0.124242,0.066959
807.412938,0.045455,0.145526
807.446198,0.522727,0.232608
807.479457,0.275000,0.110426
807.512715,0.124242,0.049167
807.545974,0.247727,0.119199
807.579232,0.529545,0.323947
807.612490,0.459091,0.182993
807.645747,0.445455,0.213830
807.679004,1.143182,0.683093
807.712261,2.143182,0.381634
807.745518,3.168182,0.251719
807.778774,12.144697,0.846745
807.812030,21.368182,1.105029
807.845285,44.650000,1.188154
807.878541,86.945455,1.615447
807.911796,90.603788,2.441401
807.945051,25.636364,0.944208
807.978305,7.031818,1.233291
808.011559,3.527273,0.535747
808.044813,1.250000,0.405763
808.078066,0.745455,0.315639
808.111320,0.403788,0.273491
808.144573,0.852273,0.204151
808.177825,-0.170455,0.173365
808.211078,0.343182,0.296508
808.244330,0.020455,0.209544
808.277581,0.275000,0.139375
808.310833,-0.547727,0.194458
808.344084,0.397727,0.372538
808.377335,-0.111364,0.520751
808.410585,-0.095455,0.305282
808.443835,-0.434848,0.038233
808.477085,0.015909,0.158713
808.510335,0.329545,0.420723
808.543584,-0.217424,0.081017
808.576833,0.063636,0.217850
808.610082,0.500000,0.165457
808.643330,0.134091,0.083529
808.676578,0.711364,0.213161
808.709826,-0.341667,0.103571
808.743073,-0.559091,0.034242
808.776320,0.109091,0.231863
808.809567,0.136364,0.075378
808.842814,0.206818,0.057977
808.876060,1.350000,0.536994
808.909306,0.368182,0.142350
808.942552,0.497727,0.384560
808.975797,-0.403788,0.038081
809.009042,0.893182,0.263840
809.042287,-0.188636,0.058685
809.075531,0.318182,0.186031
809.108775,0.652273,0.278692
809.142019,0.411364,0.257438
809.175262,0.252273,0.086266
809.208506,0.341667,0.049624
809.241748,0.372727,0.251154
809.274991,0.768182,0.394454
809.308233,0.434848,0.277263
809.341475,0.113636,0.269632
809.374717,0.445455,0.230119
809.407958,0.268182,0.337123
809.441199,-0.395455,0.066920
809.474440,-1.211364,0.226439
809.507680,-1.961364,0.256292
809.540921,-1.708333,0.271957
809.574160,-0.784091,0.628066
809.607400,1.263636,0.351296
809.640639,0.904545,0.148042
809.673878,1.761364,0.449223
809.707117,3.479545,0.589994
809.740355,9.893182,0.153080
809.773593,30.490909,3.130819
809.806831,63.084091,2.165596
809.840068,127.224242,2.844423
809.873305,92.653788,1.971374
809.906542,24.540909,1.302419
809.939778,6.486364,0.574542
809.973015,2.618182,0.555253
810.006250,2.298485,0.189101
810.039486,1.063636,0.330820
810.072721,0.962879,0.178185
810.105956,0.465909,0.529203
810.139191,0.515909,0.421202
810.172425,-0.186364,0.200760
810.205659,0.661364,0.248453
810.238893,1.322727,0.340173
810.272126,0.702273,0.698400
810.305359,1.147727,0.432229
810.338592,0.900758,0.404882
810.371825,1.190909,0.357129
810.405057,1.425000,0.671462
810.438289,0.310606,0.196496
810.471520,0.434091,0.251039
810.504751,0.559091,0.167428
810.537982,-0.062121,0.080898
810.571213,0.155303,0.164969
810.604443,0.445455,0.276975
810.637673,0.495455,0.252702
810.670903,0.293182,0.131754
810.704133,0.341667,0.098458
810.737362,0.000000,0.147290
810.770591,0.155303,0.049206
810.803819,0.197727,0.309932
810.837047,0.372727,0.116154
810.870275,1.325000,0.291731
810.903503,0.434848,0.113249
810.936730,0.341667,0.152065
810.969957,0.143182,0.300969
811.003184,0.186364,0.115954
811.036410,0.245455,0.148477
811.069636,0.093182,0.178966
811.102862,-0.140909,0.025206
811.136087,0.496970,0.038569
811.169312,0.436364,0.189715
811.202537,0.062121,0.214011
811.235762,0.588636,0.590169
811.268986,0.295455,0.182880
811.302210,-0.300000,0.154612
811.335433,0.947727,0.190919
811.368656,0.279545,0.032679
811.401879,1.281818,0.134303
811.435102,2.150000,0.336079
811.468324,2.018939,0.247077
811.501546,2.764394,0.202346
811.534768,2.913636,0.731250
811.567990,3.404545,0.552619
811.601211,0.869697,0.361728
811.634432,2.174242,0.295236
811.667652,3.944697,0.274716
811.700872,14.190909,0.974181
811.734092,31.582576,1.738599
811.767312,53.684091,0.751757
811.800531,122.504545,0.761425
811.833750,101.656818,3.326422
811.866969,37.829545,0.653656
811.900187,9.006818,0.762590
811.933405,4.656818,0.462547
811.966623,1.554545,0.396081
811.999840,1.521970,0.550482
812.033057,0.372727,0.033091
812.066274,0.683333,0.130697
812.099490,1.450000,0.467337
812.132707,0.155303,0.103372
812.165923,0.702273,0.187837
812.199138,0.504545,0.242267
812.232353,0.124242,0.369750
812.265568,0.722727,0.443054
812.298783,0.472727,0.381439
812.331997,0.579545,0.054201
812.365211,-0.420455,0.070738
812.398425,0.536364,0.194607
812.431638,0.840909,0.457236
812.464851,-0.465909,0.056533
812.498064,0.193182,0.370801
812.531277,0.768182,0.534371
812.564489,0.652273,0.480168
812.597701,-0.093182,0.178966
812.630912,-1.025000,0.087751
812.664123,0.677273,0.419335
