#{
#    "background_file": "Backgrounds\\\\bg_787.999nm_13bin_219st_244en_10.0s_110g_4x_5_seq.txt",
#    "ccd_image_settings": [
#        1,
#        13,
#        1,
#        1600,
#        219,
#        244
#    ],
#    "ccd_temperature": "-87",
#    "cdRatios": {
#        "mean": 0.936788644356034,
#        "std": 0.020745544459617245
#    },
#    "center_lambda": 786.0,
#    "comments": "",
#    "dark_region": 11.082897750610895,
#    "date": "10/22/20 15:32:28PM",
#    "eff_field": 1.5,
#    "exposure": 10.0,
#    "fel_lambda": "15.0",
#    "fel_pol": "H",
#    "fel_pulses": 43,
#    "fel_pyro_cal": "0.012",
#    "fel_reprate": "1.07",
#    "fel_transmission": "1.0",
#    "fel_transmission_fits": {
#        "A": 1.0,
#        "C": 0.0,
#        "Mu": 0.0
#    },
#    "fieldInt": {
#        "mean": 4931.529393939394,
#        "std": 968.6016223488868
#    },
#    "fieldStrength": {
#        "mean": 31.619450757575756,
#        "std": 3.9618160142636856
#    },
#    "fpTime": {
#        "mean": 1.1851333781389333,
#        "std": 0.16896318069106503
#    },
#    "gain": 110,
#    "grating": 3,
#    "images_in_sequence": [
#        "hsg_820nm_c123_a45_HAna309.txt",
#        "hsg_820nm_c123_a45_HAna310.txt",
#        "hsg_820nm_c123_a45_HAna311.txt",
#        "hsg_820nm_c123_a45_HAna312.txt"
#    ],
#    "nir_lambda": "819.98",
#    "nir_pola": "45",
#    "nir_polg": "0",
#    "nir_power": "100.0",
#    "pulseEnergies": {
#        "mean": 1.5165852272727274,
#        "std": 0.30356888280314775
#    },
#    "pyroVoltage": {
#        "mean": 0.13461845179848386,
#        "std": 0.027510975422822874
#    },
#    "rotatorAngle": 225.0,
#    "sample_Temp": "55",
#    "sample_name": "L001218.C1",
#    "series": "820_Fan",
#    "slits": "60",
#    "spec_step": "",
#    "window_trans": 0.92,
#    "y_max": 2,
#    "y_min": 1
#}
#
#
#
#
#
#
#
#
#
#
#
#
#
#
#
#
#
#
#
#
#
#
#
#
#
#
Wavelength,Signal,error
nm,arb. u.,arb.u.
Wavelength,820_Fan,error
759.194366,-0.070455,0.020423
759.228015,-0.403788,0.020423
759.261663,-0.279545,0.032679
759.295311,-0.124242,0.037206
759.328959,0.022727,0.049533
759.362607,-0.002273,0.085666
759.396254,0.259091,0.063758
759.429901,0.134091,0.123456
759.463548,-0.188636,0.049101
759.497194,-0.093182,0.055705
759.530841,-0.093182,0.111358
759.564487,-0.062121,0.018603
759.598133,-0.115909,0.037397
759.631779,-0.155303,0.049206
759.665424,0.040909,0.220384
759.699069,0.000000,0.032141
759.732714,0.484091,0.175262
759.766359,-0.068182,0.019682
759.800003,0.038636,0.109392
759.833648,-0.052273,0.103071
759.867292,0.031061,0.080890
759.900935,-0.186364,0.032381
759.934579,0.152273,0.325934
759.968222,0.002273,0.056625
760.001865,0.088636,0.112282
760.035508,0.434091,0.456817
760.069151,-0.528030,0.134279
760.102793,0.031061,0.018568
760.136435,-0.075000,0.107005
760.170077,-0.045455,0.022727
760.203718,0.000000,0.032141
760.237360,0.361364,0.245841
760.271001,-0.209091,0.037206
760.304642,0.211364,0.099761
760.338283,0.472727,0.311355
760.371923,0.020455,0.060163
760.405563,0.020455,0.126555
760.439203,0.124242,0.018741
760.472843,0.136364,0.093707
760.506482,-0.043182,0.076424
760.540122,-0.002273,0.046619
760.573761,0.093182,0.032201
760.607399,-0.052273,0.086744
760.641038,0.047727,0.051363
760.674676,-0.097727,0.212312
760.708314,-0.238636,0.110613
760.741952,-0.259091,0.055064
760.775589,0.038636,0.252229
760.809227,-0.031818,0.124212
760.842864,0.322727,0.092123
760.876501,-0.045455,0.075378
760.910137,0.093182,0.115904
760.943774,0.275000,0.131754
760.977410,0.290909,0.241466
761.011046,0.000000,0.032141
761.044681,0.065909,0.088337
761.078317,-0.302273,0.080890
761.111952,-0.027273,0.069976
761.145587,0.136364,0.039365
761.179221,-0.159091,0.108402
761.212856,-0.093182,0.032201
761.246490,-0.027273,0.172308
761.280124,0.031061,0.112878
761.313758,-0.020455,0.088044
761.347391,-0.206818,0.117012
761.381024,0.161364,0.066679
761.414657,-0.329545,0.155291
761.448290,-0.118182,0.068484
761.481923,-0.097727,0.134969
761.515555,-0.263636,0.286508
761.549187,-0.186364,0.032381
761.582819,-0.161364,0.036699
761.616450,0.127273,0.359005
761.650082,-0.093182,0.032201
761.683713,0.229545,0.049311
761.717344,-0.238636,0.100842
761.750974,-0.068182,0.037689
761.784605,-0.556818,0.051764
761.818235,-0.006818,0.139856
761.851865,0.390909,0.175869
761.885494,-0.093182,0.055705
761.919124,-0.050000,0.053926
761.952753,-0.004545,0.087522
761.986382,0.504545,0.231361
762.020010,-0.675000,0.037809
762.053639,-0.279545,0.111497
762.087267,-0.403788,0.038081
762.120895,0.061364,0.118242
762.154523,0.840909,0.365584
762.188150,0.113636,0.098412
762.221777,0.095455,0.125371
762.255404,0.177273,0.181292
762.289031,0.225000,0.302970
762.322658,0.043182,0.146070
762.356284,0.047727,0.068588
762.389910,0.163636,0.021320
762.423536,-0.186364,0.032381
762.457161,0.163636,0.038569
762.490786,0.386364,0.214107
762.524411,-0.161364,0.066679
762.558036,0.031061,0.049101
762.591661,-0.050000,0.043301
762.625285,-0.300000,0.079643
762.658909,0.159091,0.141476
762.692533,0.081818,0.249089
762.726157,0.065909,0.104416
762.759780,0.506818,0.100534
762.793403,0.222727,0.330000
762.827026,0.277273,0.186903
762.860649,-0.025000,0.059732
762.894271,-0.147727,0.151929
762.927893,0.247727,0.131558
762.961515,-0.217424,0.037397
762.995137,0.279545,0.085242
763.028758,-0.161364,0.036699
763.062379,-0.263636,0.108806
763.096000,-0.072727,0.041161
763.129621,-0.072727,0.041161
763.163241,-0.465909,0.009841
763.196862,0.188636,0.037119
763.230481,-0.068182,0.059047
763.264101,0.184091,0.189888
763.297721,0.293182,0.252679
763.331340,0.047727,0.051363
763.364959,0.154545,0.173503
763.398578,0.186364,0.115954
763.432196,0.002273,0.102165
763.465814,-0.113636,0.275319
763.499432,0.068182,0.067228
763.533050,0.124242,0.129924
763.566668,-0.209091,0.018741
763.600285,0.022727,0.037689
763.633902,-0.463636,0.041411
763.667519,-0.165909,0.077298
763.701135,-0.002273,0.033767
763.734752,0.002273,0.079407
763.768368,-0.120455,0.115591
763.801984,-0.100000,0.121373
763.835599,-0.193182,0.094222
763.869215,-0.559091,0.034242
763.902830,-0.209091,0.066959
763.936444,0.093182,0.001968
763.970059,0.031061,0.018568
764.003673,-0.047727,0.051363
764.037288,-0.145455,0.104447
764.070901,0.129545,0.285467
764.104515,-0.186364,0.064403
764.138128,0.047727,0.082282
764.171742,-0.375000,0.082533
764.205354,0.247727,0.189480
764.238967,-0.186364,0.003936
764.272580,0.068182,0.059047
764.306192,-0.027273,0.089420
764.339804,0.045455,0.050820
764.373415,0.000000,0.064282
764.407027,-0.447727,0.079602
764.440638,0.045455,0.022727
764.474249,-0.300000,0.072869
764.507860,-0.043182,0.146070
764.541470,-0.029545,0.144577
764.575080,-0.443182,0.040576
764.608690,-0.163636,0.038569
764.642300,-0.093182,0.064313
764.675909,-0.004545,0.067535
764.709519,0.211364,0.142418
764.743128,-0.047727,0.023918
764.776736,-0.093182,0.085060
764.810345,0.429545,0.429965
764.843953,0.413636,0.330937
764.877561,-0.022727,0.037689
764.911169,0.302273,0.129899
764.944776,0.209091,0.018741
764.978384,0.227273,0.223838
765.011991,-0.047727,0.068588
765.045598,-0.217424,0.019117
765.079204,-0.118182,0.060473
765.112810,0.000000,0.140100
765.146416,-0.093182,0.032201
765.180022,-0.161364,0.066679
765.213628,0.152273,0.254776
765.247233,0.000000,0.055670
765.280838,0.209091,0.049167
765.314443,0.186364,0.055809
765.348048,-0.528030,0.038753
765.381652,-0.634091,0.083219
765.415256,-0.072727,0.099793
765.448860,0.090909,0.085038
765.482463,-0.254545,0.015746
765.516067,0.461364,0.237135
765.549670,-0.304545,0.027555
765.583273,0.045455,0.099066
765.616875,-0.062121,0.037137
765.650478,-0.068182,0.067228
765.684080,0.393182,0.215691
765.717682,0.000000,0.032141
765.751283,-0.031818,0.324507
765.784885,-0.095455,0.080128
765.818486,0.090909,0.096424
765.852087,0.084091,0.182481
765.885687,-0.056818,0.169600
765.919288,0.025000,0.059732
765.952888,-0.002273,0.046619
765.986488,0.043182,0.094551
766.020087,-0.050000,0.077506
766.053687,-0.325000,0.081208
766.087286,0.138636,0.038753
766.120885,-0.093182,0.032201
766.154484,-0.341667,0.037809
766.188082,-0.310606,0.037689
766.221680,0.068182,0.113067
766.255278,-0.145455,0.088374
766.288876,0.295455,0.155395
766.322473,0.155303,0.049206
766.356070,0.025000,0.038753
766.389667,0.000000,0.032141
766.423264,0.140909,0.025206
766.456860,0.320455,0.223269
766.490457,0.124242,0.018741
766.524053,0.002273,0.033767
766.557648,-0.062121,0.066920
766.591244,0.000000,0.055670
766.624839,0.000000,0.055670
766.658434,0.090909,0.106600
766.692029,0.095455,0.035428
766.725623,0.095455,0.035428
766.759217,0.159091,0.087286
766.792811,-0.118182,0.088257
766.826405,0.093182,0.096444
766.859999,-0.075000,0.072469
766.893592,-0.279545,0.005905
766.927185,0.277273,0.083906
766.960777,-0.115909,0.067065
766.994370,-0.468182,0.062117
767.027962,-0.047727,0.113880
767.061554,-0.190909,0.070857
767.095146,0.045455,0.050820
767.128737,-0.031061,0.204125
767.162329,0.204545,0.141476
767.195920,-0.095455,0.047835
767.229510,0.022727,0.081153
767.263101,-0.186364,0.032381
767.296691,-0.434848,0.020706
767.330281,-0.140909,0.051975
767.363871,0.043182,0.135046
767.397460,-0.163636,0.021320
767.431050,0.047727,0.023918
767.464639,-0.310606,0.049533
767.498227,0.363636,0.184637
767.531816,-0.004545,0.074793
767.565404,0.025000,0.067831
767.598992,-0.155303,0.037258
767.632580,0.040909,0.132580
767.666168,-0.393182,0.045836
767.699755,-0.248485,0.037483
767.733342,0.347727,0.034970
767.766929,0.022727,0.074516
767.800515,0.025000,0.038753
767.834101,-0.124242,0.066959
767.867687,-0.070455,0.067449
767.901273,-0.022727,0.049533
767.934859,0.461364,0.165250
767.968444,0.093182,0.055705
768.002029,-0.025000,0.038753
768.035614,-0.395455,0.049114
768.069198,-0.045455,0.068182
768.102783,0.031061,0.066910
768.136367,0.186364,0.032381
768.169950,0.062121,0.018603
768.203534,-0.072727,0.041161
768.237117,0.272727,0.274615
768.270700,-0.279545,0.055982
768.304283,-0.403788,0.038081
768.337866,-0.231818,0.020706
768.371448,0.115909,0.049311
768.405030,-0.217424,0.081017
768.438612,-0.072727,0.052223
768.472193,0.025000,0.059732
768.505775,0.068182,0.037689
768.539356,0.386364,0.188445
768.572936,-0.310606,0.049533
768.606517,-0.279545,0.055982
768.640097,-0.211364,0.041082
768.673677,0.043182,0.052359
768.707257,0.245455,0.253773
768.740836,-0.018182,0.153607
768.774416,0.038636,0.099502
768.807995,0.113636,0.037689
768.841574,-0.155303,0.018844
768.875152,0.070455,0.020423
768.908730,-0.025000,0.087751
768.942308,-0.004545,0.191274
768.975886,0.002273,0.033767
769.009464,-0.097727,0.088804
769.043041,0.163636,0.067726
769.076618,-0.070455,0.020423
769.110195,-0.047727,0.023918
769.143771,-0.256818,0.075266
769.177348,-0.186364,0.032381
769.210924,-0.068182,0.117546
769.244499,-0.143182,0.071753
769.278075,-0.714394,0.051363
769.311650,-0.093182,0.032201
769.345225,-0.093182,0.032201
769.378800,0.155303,0.018844
769.412375,0.186364,0.032381
769.445949,0.138636,0.067831
769.479523,-0.031061,0.049101
769.513097,0.159091,0.081153
769.546670,-0.070455,0.020423
769.580243,0.202273,0.142671
769.613816,0.095455,0.097569
769.647389,0.031061,0.066910
769.680962,-0.143182,0.078623
769.714534,0.159091,0.113067
769.748106,-0.045455,0.022727
769.781678,-0.186364,0.032381
769.815249,0.186364,0.032381
769.848820,-0.002273,0.072612
769.882391,-0.248485,0.074412
769.915962,-0.025000,0.038753
769.949533,-0.155303,0.074299
769.983103,-0.163636,0.038569
770.016673,-0.050000,0.077506
770.050243,-0.515909,0.062106
770.083812,0.070455,0.020423
770.117381,-0.031061,0.092786
770.150950,0.161364,0.086863
770.184519,0.124242,0.018741
770.218088,-0.325000,0.049624
770.251656,-0.248485,0.019285
770.285224,-0.186364,0.032381
770.318791,0.334091,0.310681
770.352359,-0.231818,0.049948
770.385926,-0.279545,0.096604
770.419493,-0.043182,0.069337
770.453060,0.000000,0.055670
770.486626,-0.124242,0.018741
770.520192,-0.281818,0.050412
770.553758,-0.165909,0.042927
770.587324,0.161364,0.086863
770.620890,0.181818,0.160706
770.654455,0.000000,0.032141
770.688020,-0.113636,0.087286
770.721584,-0.025000,0.117892
770.755149,-0.031061,0.074230
770.788713,-0.310606,0.049533
770.822277,0.000000,0.032141
770.855841,0.093182,0.195517
770.889404,-0.072727,0.127110
770.922967,0.250000,0.174201
770.956530,-0.022727,0.074516
770.990093,-0.140909,0.025206
771.023655,-0.025000,0.038753
771.057217,-0.372727,0.056224
771.090779,0.072727,0.127110
771.124341,0.020455,0.104168
771.157902,0.418182,0.067113
771.191463,0.163636,0.021320
771.225024,-0.124242,0.066959
771.258585,0.163636,0.050206
771.292145,0.050000,0.070528
771.325705,-0.310606,0.019682
771.359265,-0.070455,0.020423
771.392825,0.250000,0.271541
771.426384,-0.188636,0.080890
771.459943,-0.025000,0.087751
771.493502,0.031061,0.080890
771.527061,-0.093182,0.032201
771.560619,-0.070455,0.049832
771.594177,0.090909,0.106600
771.627735,0.115909,0.158615
771.661293,0.118182,0.060473
771.694850,-0.138636,0.050347
771.728407,-0.209091,0.049167
771.761964,0.000000,0.055670
771.795521,-0.341667,0.019911
771.829077,-0.143182,0.055519
771.862633,0.118182,0.113818
771.896189,0.070455,0.038081
771.929744,-0.115909,0.067065
771.963300,0.163636,0.130321
771.996855,0.022727,0.081153
772.030409,-0.047727,0.099346
772.063964,-0.093182,0.032201
772.097518,-0.193182,0.104613
772.131072,-0.118182,0.039886
772.164626,-0.236364,0.073011
772.198180,0.088636,0.097509
772.231733,-0.068182,0.087286
772.265286,0.436364,0.353320
772.298839,-0.045455,0.075378
772.332391,-0.113636,0.074516
772.365943,0.179545,0.125736
772.399495,0.018182,0.189715
772.433047,-0.090909,0.032141
772.466598,-0.027273,0.083443
772.500150,-0.062121,0.037137
772.533701,-0.302273,0.037119
772.567251,0.072727,0.061322
772.600802,0.062121,0.018603
772.634352,0.070455,0.038081
772.667902,-0.509091,0.090682
772.701452,0.068182,0.037689
772.735001,0.072727,0.061322
772.768550,0.115909,0.037397
772.802099,0.188636,0.151895
772.835648,-0.031061,0.066910
772.869196,0.118182,0.039886
772.902744,0.000000,0.055670
772.936292,-0.031061,0.018568
772.969840,-0.047727,0.068588
773.003387,-0.124242,0.037206
773.036934,-0.000000,0.085038
773.070481,0.043182,0.069337
773.104028,0.093182,0.032201
773.137574,0.045455,0.022727
773.171120,-0.347727,0.057350
773.204666,-0.022727,0.130063
773.238212,-0.213636,0.085854
773.271757,-0.488636,0.018844
773.305302,-0.025000,0.059732
773.338847,-0.095455,0.047835
773.372391,0.161364,0.017714
773.405936,0.022727,0.074516
773.439480,-0.009091,0.194607
773.473024,0.250000,0.165066
773.506567,0.138636,0.021651
773.540110,-0.155303,0.066988
773.573653,0.124242,0.037206
773.607196,-0.211364,0.041082
773.640739,-0.093182,0.001968
773.674281,-0.050000,0.135661
773.707823,-0.434848,0.038233
773.741365,-0.310606,0.067228
773.774906,-0.050000,0.166438
773.808447,0.031061,0.037119
773.841988,-0.002273,0.033767
773.875529,0.155303,0.066988
773.909070,-0.136364,0.093707
773.942610,0.134091,0.149910
773.976150,-0.350000,0.159205
774.009689,-0.097727,0.094441
774.043229,-0.161364,0.036699
774.076768,-0.072727,0.052223
774.110307,-0.093182,0.055705
774.143845,0.159091,0.130063
774.177384,-0.047727,0.051363
774.210922,0.068182,0.037689
774.244460,0.124242,0.018741
774.277997,0.159091,0.218879
774.311535,-0.113636,0.059047
774.345072,0.154545,0.271094
774.378609,0.200000,0.188074
774.412145,-0.143182,0.096337
774.445682,-0.031061,0.018568
774.479218,0.443182,0.082533
774.512754,0.031061,0.018568
774.546289,-0.140909,0.069048
774.579824,-0.165909,0.077298
774.613359,0.154545,0.225310
774.646894,-0.022727,0.037689
774.680429,0.115909,0.067065
774.713963,0.061364,0.134586
774.747497,0.375000,0.165749
774.781031,-0.248485,0.037483
774.814564,-0.070455,0.049832
774.848097,0.095455,0.086334
774.881630,-0.025000,0.098824
774.915163,-0.259091,0.055064
774.948696,0.184091,0.054770
774.982228,-0.206818,0.080377
775.015760,0.136364,0.171587
775.049291,0.045455,0.039365
775.082823,-0.372727,0.007873
775.116354,-0.186364,0.032381
775.149885,0.095455,0.047835
775.183416,0.000000,0.000000
775.216946,0.000000,0.055670
775.250476,-0.145455,0.279388
775.284006,0.138636,0.050347
775.317535,-0.031061,0.049101
775.351065,-0.113636,0.059047
775.384594,-0.122727,0.093900
775.418123,-0.002273,0.072612
775.451651,-0.045455,0.075378
775.485180,-0.004545,0.113249
775.518708,-0.310606,0.049533
775.552235,-0.097727,0.069188
775.585763,-0.031061,0.049101
775.619290,-0.334091,0.133042
775.652817,0.045455,0.050820
775.686344,0.140909,0.025206
775.719870,0.000000,0.032141
775.753397,0.088636,0.133313
775.786923,0.113636,0.059047
775.820448,0.202273,0.118982
775.853974,-0.031061,0.098195
775.887499,-0.002273,0.033767
775.921024,-0.093182,0.055705
775.954549,0.062121,0.037137
775.988073,0.465909,0.111775
776.021597,-0.090909,0.045455
776.055121,0.022727,0.049533
776.088645,0.155303,0.018844
776.122168,-0.155303,0.098248
776.155691,0.320455,0.170844
776.189214,0.550000,0.315271
776.222737,0.000000,0.115887
776.256259,0.065909,0.191648
776.289781,0.222727,0.155528
776.323303,0.138636,0.050347
776.356824,-0.145455,0.152662
776.390346,-0.022727,0.049533
776.423867,0.138636,0.148872
776.457387,-0.281818,0.038836
776.490908,-0.031061,0.037119
776.524428,0.047727,0.130771
776.557948,-0.124242,0.098228
776.591468,-0.070455,0.067449
776.624987,-0.217424,0.019117
776.658506,0.002273,0.072612
776.692025,0.115909,0.098300
776.725544,0.070455,0.038081
776.759062,0.000000,0.055670
776.792581,-0.304545,0.119118
776.826099,0.002273,0.046619
776.859616,-0.186364,0.032381
776.893134,0.115909,0.081017
776.926651,0.513636,0.220197
776.960167,-0.248485,0.049376
776.993684,0.090909,0.078730
777.027200,0.000000,0.055670
777.060716,0.111364,0.068963
777.094232,0.310606,0.158685
777.127748,-0.022727,0.067228
777.161263,-0.165909,0.053626
777.194778,0.159091,0.067228
777.228293,0.000000,0.000000
777.261807,-0.750000,0.074516
777.295322,0.002273,0.033767
777.328836,-0.279545,0.055982
777.362349,-0.029545,0.092228
777.395863,-0.068182,0.037689
777.429376,-0.124242,0.018741
777.462889,-0.031061,0.037119
777.496401,-0.138636,0.021651
777.529914,-0.090909,0.055670
777.563426,-0.020455,0.088044
777.596938,-0.072727,0.152933
777.630449,-0.002273,0.046619
777.663961,0.025000,0.087751
777.697472,0.134091,0.228979
777.730983,0.138636,0.021651
777.764493,-0.062121,0.018603
777.798004,0.124242,0.018741
777.831514,-0.217424,0.067065
777.865023,-0.209091,0.151916
777.898533,-0.350000,0.039821
777.932042,0.186364,0.032381
777.965551,0.070455,0.049832
777.999060,0.281818,0.138095
778.032568,0.124242,0.161795
778.066076,0.138636,0.130375
778.099584,0.124242,0.049167
778.133092,-0.025000,0.059732
778.166599,0.050000,0.077506
778.200107,0.161364,0.117233
778.233613,0.134091,0.105400
778.267120,0.456818,0.368720
778.300626,0.138636,0.067831
778.334132,-0.138636,0.050347
778.367638,0.025000,0.059732
778.401144,-0.025000,0.038753
778.434649,-0.004545,0.108593
778.468154,0.545455,0.289271
778.501659,0.062121,0.049114
778.535163,0.234091,0.135160
778.568668,-0.248485,0.019285
778.602172,0.090909,0.085038
778.635675,-0.115909,0.049311
778.669179,-0.186364,0.032381
778.702682,0.436364,0.377355
778.736185,-0.217424,0.019117
778.769688,-0.186364,0.032381
778.803190,-0.004545,0.093237
778.836692,-0.029545,0.086446
778.870194,0.090909,0.071870
778.903696,-0.047727,0.051363
778.937197,0.002273,0.056625
778.970698,0.159091,0.093015
779.004199,-0.188636,0.037119
779.037699,0.000000,0.032141
779.071200,-0.254545,0.057854
779.104700,0.000000,0.032141
779.138199,0.002273,0.072612
779.171699,-0.093182,0.085060
779.205198,-0.045455,0.022727
779.238697,-0.002273,0.033767
779.272196,0.115909,0.103422
779.305694,-0.143182,0.096337
779.339192,0.111364,0.088629
779.372690,0.115909,0.019117
779.406188,0.062121,0.018603
779.439685,0.022727,0.113067
779.473182,-0.248485,0.019285
779.506679,0.068182,0.059047
779.540176,0.322727,0.182428
779.573672,0.095455,0.073399
779.607168,0.161364,0.036699
779.640664,-0.186364,0.055809
779.674160,0.088636,0.073320
779.707655,0.000000,0.064282
779.741150,0.465909,0.111775
779.774644,-0.090909,0.055670
779.808139,-0.047727,0.204681
779.841633,-0.093182,0.085060
779.875127,0.031061,0.049101
779.908621,0.217424,0.129978
779.942114,0.031061,0.049101
779.975607,0.231818,0.122031
780.009100,0.000000,0.055670
780.042593,-0.047727,0.023918
780.076085,-0.186364,0.055809
780.109577,-0.310606,0.037689
780.143069,0.062121,0.049114
780.176560,-0.140909,0.025206
780.210052,-0.155303,0.049206
780.243543,-0.070455,0.074715
780.277033,0.025000,0.021651
780.310524,-0.043182,0.123037
780.344014,-0.118182,0.060473
780.377504,-0.025000,0.038753
780.410994,-0.186364,0.055809
780.444483,-0.025000,0.067831
780.477972,0.000000,0.032141
780.511461,0.062121,0.074239
780.544950,-0.043182,0.123037
780.578438,-0.068182,0.067228
780.611926,0.310606,0.218879
780.645414,0.188636,0.037119
780.678902,-0.124242,0.049167
780.712389,0.025000,0.038753
780.745876,0.022727,0.049533
780.779363,0.070455,0.020423
780.812849,-0.124242,0.049167
780.846335,-0.310606,0.037689
780.879821,-0.209091,0.049167
780.913307,0.225000,0.119632
780.946792,-0.062121,0.103328
780.980277,-0.093182,0.032201
781.013762,0.118182,0.118269
781.047247,-0.254545,0.035791
781.080731,0.156818,0.244048
781.114215,-0.113636,0.087286
781.147699,-0.165909,0.062521
781.181183,-0.325000,0.037809
781.214666,0.070455,0.152133
781.248149,-0.122727,0.104323
781.281632,-0.072727,0.041161
781.315114,0.118182,0.039886
781.348596,0.093182,0.055705
781.382078,0.093182,0.032201
781.415560,-0.093182,0.064313
781.449041,0.186364,0.115954
781.482522,-0.047727,0.122617
781.516003,0.310606,0.121861
781.549484,-0.496970,0.050206
781.582964,0.062121,0.098202
781.616444,-0.300000,0.085884
781.649924,0.043182,0.069337
781.683404,0.140909,0.104718
781.716883,0.022727,0.067228
781.750362,0.140909,0.025206
781.783841,0.047727,0.023918
781.817319,0.388636,0.308378
781.850797,-0.047727,0.082282
781.884275,0.113636,0.126029
781.917753,0.252273,0.057530
781.951230,-0.248485,0.067113
781.984707,0.113636,0.133975
782.018184,0.090909,0.055670
782.051661,0.136364,0.068182
782.085137,-0.022727,0.037689
782.118613,0.118182,0.149171
782.152089,0.159091,0.059047
782.185564,0.088636,0.065899
782.219040,-0.124242,0.049167
782.252515,-0.031061,0.049101
782.285989,0.090909,0.055670
782.319464,-0.434848,0.020706
782.352938,0.022727,0.019682
782.386412,-0.075000,0.107005
782.419885,0.000000,0.055670
782.453359,-0.279545,0.032679
782.486832,-0.068182,0.067228
782.520305,-0.002273,0.085666
782.553777,-0.155303,0.018844
782.587249,0.370455,0.186679
782.620721,0.496970,0.081565
782.654193,0.093182,0.055705
782.687665,-0.347727,0.086147
782.721136,0.093182,0.032201
782.754607,-0.217424,0.067065
782.788077,0.063636,0.101334
782.821548,-0.047727,0.094003
782.855018,0.022727,0.103528
782.888488,-0.122727,0.093900
782.921957,0.115909,0.067065
782.955427,0.375000,0.156121
782.988896,-0.184091,0.054770
783.022365,0.020455,0.088044
783.055833,0.047727,0.051363
783.089301,-0.118182,0.039886
783.122769,-0.093182,0.032201
783.156237,0.184091,0.101149
783.189704,-0.143182,0.096337
783.223172,0.163636,0.081565
783.256638,0.070455,0.038081
783.290105,0.447727,0.368482
783.323571,0.093182,0.032201
783.357037,-0.047727,0.023918
783.390503,-0.163636,0.038569
783.423969,0.022727,0.081153
783.457434,0.047727,0.051363
783.490899,0.322727,0.073399
783.524364,0.031061,0.037119
783.557828,-0.062121,0.103328
783.591292,-0.022727,0.067228
783.624756,-0.020455,0.060163
783.658220,-0.052273,0.173930
783.691683,0.229545,0.049311
783.725146,-0.009091,0.135070
783.758609,0.047727,0.051363
783.792072,0.297727,0.203669
783.825534,-0.045455,0.039365
783.858996,-0.184091,0.044347
783.892458,0.047727,0.075745
783.925919,0.090909,0.124482
783.959381,0.159091,0.137777
783.992842,-0.062121,0.018603
784.026302,-0.155303,0.049206
784.059763,0.227273,0.188787
784.093223,-0.090909,0.045455
784.126683,0.022727,0.133975
784.160142,0.111364,0.126963
784.193601,-0.188636,0.037119
784.227060,0.090909,0.032141
784.260519,0.070455,0.049832
784.293978,0.118182,0.099274
784.327436,0.161364,0.017714
784.360894,-0.031061,0.066910
784.394352,-0.138636,0.038753
784.427809,-0.145455,0.162496
784.461266,-0.195455,0.162417
784.494723,0.156818,0.135046
784.528180,0.020455,0.081968
784.561636,0.318182,0.277422
784.595092,0.372727,0.116154
784.628548,0.155303,0.112924
784.662003,0.000000,0.032141
784.695458,0.163636,0.038569
784.728913,0.062121,0.066920
784.762368,0.070455,0.093175
784.795823,-0.070455,0.081335
784.829277,-0.000000,0.085038
784.862731,0.204545,0.081153
784.896184,-0.020455,0.050858
784.929637,-0.161364,0.066679
784.963091,-0.095455,0.057631
784.996543,0.184091,0.132146
785.029996,0.025000,0.021651
785.063448,0.113636,0.117546
785.096900,-0.120455,0.063748
785.130352,0.528030,0.148872
785.163803,0.247727,0.197489
785.197254,0.062121,0.018603
785.230705,0.002273,0.102165
785.264156,-0.113636,0.049533
785.297606,-0.090909,0.045455
785.331056,0.281818,0.098857
785.364506,-0.054545,0.111155
785.397955,-0.256818,0.050654
785.431405,0.043182,0.052359
785.464854,0.186364,0.096504
785.498302,0.025000,0.038753
785.531751,0.154545,0.206155
785.565199,-0.045455,0.039365
785.598647,-0.161364,0.058421
785.632094,0.159091,0.087286
785.665542,-0.045455,0.039365
785.698989,0.179545,0.216336
785.732436,-0.022727,0.148599
785.765882,-0.002273,0.107102
785.799328,0.068182,0.087286
785.832774,-0.277273,0.029016
785.866220,0.134091,0.070078
785.899665,0.022727,0.049533
785.933111,0.118182,0.060473
785.966555,0.138636,0.075060
786.000000,-0.120455,0.071392
786.033444,0.088636,0.057530
786.066888,0.406818,0.490671
786.100332,0.059091,0.282651
786.133776,0.115909,0.019117
786.167219,0.113636,0.037689
786.200662,0.070455,0.038081
786.234104,0.093182,0.032201
786.267547,-0.062121,0.098202
786.300989,-0.136364,0.075378
786.334431,-0.217424,0.067065
786.367872,0.138636,0.152302
786.401314,0.031061,0.018568
786.434755,0.062121,0.018603
786.468196,0.070455,0.067449
786.501636,-0.138636,0.050347
786.535076,0.047727,0.099346
786.568516,0.300000,0.289521
786.601956,-0.095455,0.073399
786.635395,0.068182,0.037689
786.668834,0.031061,0.066910
786.702273,0.188636,0.058685
786.735712,0.186364,0.003936
786.769150,0.156818,0.197227
786.802588,-0.115909,0.049311
786.836026,0.031061,0.018568
786.869463,-0.075000,0.116259
786.902900,0.062121,0.018603
786.936337,-0.068182,0.067228
786.969774,0.248485,0.074412
787.003210,0.062121,0.066920
787.036646,-0.022727,0.037689
787.070082,-0.045455,0.022727
787.103518,0.256818,0.232849
787.136953,0.093182,0.032201
787.170388,0.256818,0.122322
787.203823,-0.234091,0.041706
787.237257,-0.022727,0.019682
787.270691,-0.002273,0.107102
787.304125,0.109091,0.143884
787.337559,0.062121,0.037137
787.370992,-0.068182,0.037689
787.404425,-0.115909,0.067065
787.437858,-0.022727,0.037689
787.471290,0.025000,0.087751
787.504723,-0.113636,0.059047
787.538155,-0.120455,0.111033
787.571586,0.045455,0.022727
787.605018,0.181818,0.140100
787.638449,0.047727,0.023918
787.671880,-0.093182,0.001968
787.705310,-0.248485,0.049376
787.738741,-0.045455,0.050820
787.772171,-0.006818,0.119977
787.805600,0.209091,0.103353
787.839030,0.013636,0.179344
787.872459,-0.120455,0.139856
787.905888,0.124242,0.103353
787.939317,0.829545,0.555861
787.972745,-0.113636,0.059047
788.006173,0.045455,0.050820
788.039601,-0.006818,0.119977
788.073028,-0.025000,0.087751
788.106456,0.295455,0.174201
788.139883,-0.093182,0.001968
788.173309,0.279545,0.064553
788.206736,0.186364,0.064403
788.240162,0.134091,0.070078
788.273588,-0.031061,0.018568
788.307013,-0.115909,0.037397
788.340439,0.118182,0.113818
788.373864,-0.434848,0.067535
788.407288,-0.031061,0.066910
788.440713,0.227273,0.093707
788.474137,-0.372727,0.033091
788.507561,0.047727,0.104416
788.540985,0.315909,0.233889
788.574408,-0.124242,0.037206
788.607831,0.140909,0.069048
788.641254,0.111364,0.068963
788.674677,0.020455,0.186041
788.708099,0.297727,0.294849
788.741521,-0.248485,0.037483
788.774943,0.140909,0.069048
788.808364,0.222727,0.137927
788.841785,0.209091,0.080930
788.875206,0.124242,0.103353
788.908627,0.000000,0.055670
788.942047,-0.031061,0.037119
788.975467,-0.302273,0.037119
789.008887,-0.020455,0.050858
789.042306,-0.347727,0.057350
789.075726,-0.025000,0.038753
789.109145,-0.186364,0.055809
789.142563,0.093182,0.085060
789.175982,0.211364,0.041082
789.209400,0.138636,0.113426
789.242817,-0.070455,0.049832
789.276235,-0.095455,0.035428
789.309652,-0.093182,0.001968
789.343069,-0.062121,0.018603
789.376486,0.000000,0.064282
789.409902,0.220455,0.220779
789.443319,-0.124242,0.049167
789.476735,0.388636,0.225112
789.510150,0.022727,0.037689
789.543565,-0.090909,0.032141
789.576980,-0.045455,0.039365
789.610395,0.031061,0.049101
789.643810,0.381818,0.320833
789.677224,-0.093182,0.032201
789.710638,0.031061,0.049101
789.744052,-0.403788,0.038081
789.777465,0.062121,0.049114
789.810878,-0.050000,0.146639
789.844291,-0.002273,0.085666
789.877703,-0.193182,0.094222
789.911116,-0.209091,0.037206
789.944528,-0.054545,0.208200
789.977939,0.090909,0.071870
790.011351,-0.090909,0.032141
790.044762,-0.062121,0.018603
790.078173,0.372727,0.140321
790.111583,-0.138636,0.050347
790.144994,0.043182,0.041333
790.178404,0.070455,0.020423
790.211813,0.134091,0.083529
790.245223,-0.248485,0.019285
790.278632,0.047727,0.159265
790.312041,-0.022727,0.037689
790.345450,0.093182,0.085060
790.378858,0.031061,0.080890
790.412266,-0.025000,0.038753
790.445674,0.275000,0.210283
790.479081,0.113636,0.234818
790.512488,-0.093182,0.032201
790.545895,0.020455,0.075404
790.579302,0.161364,0.167947
790.612708,0.322727,0.173726
790.646115,1.070455,0.280944
790.679520,0.434848,0.145224
790.712926,0.652273,0.193339
790.746331,0.406818,0.208432
790.779736,0.427273,0.506915
790.813141,0.031061,0.103322
790.846545,-0.155303,0.037258
790.879949,0.045455,0.068182
790.913353,0.159091,0.137777
790.946757,-0.313636,0.334662
790.980160,-0.286364,0.143506
791.013563,-0.022727,0.067228
791.046966,-0.020455,0.050858
791.080368,0.065909,0.142127
791.113771,0.256818,0.081842
791.147173,-0.155303,0.049206
791.180574,-0.062121,0.066920
791.213976,-0.165909,0.077298
791.247377,-0.029545,0.092228
791.280777,0.520455,0.372136
791.314178,-0.427273,0.126703
791.347578,-0.231818,0.081407
791.380978,-0.163636,0.074966
791.414378,0.086364,0.142350
791.447777,0.070455,0.049832
791.481176,0.088636,0.133313
791.514575,-0.070455,0.038081
791.547973,-0.093182,0.085060
791.581372,-0.022727,0.121861
791.614770,-0.043182,0.123037
791.648167,-0.124242,0.037206
791.681565,-0.047727,0.051363
791.714962,-0.217424,0.019117
791.748359,0.000000,0.032141
791.781755,-0.002273,0.056625
791.815152,0.186364,0.032381
791.848548,0.002273,0.085666
791.881943,-0.072727,0.061322
791.915339,-0.093182,0.055705
791.948734,0.322727,0.121181
791.982129,0.045455,0.022727
792.015523,0.093182,0.032201
792.048918,-0.050000,0.053926
792.082312,0.140909,0.082666
792.115705,-0.140909,0.076162
792.149099,-0.068182,0.037689
792.182492,0.031061,0.018568
792.215885,0.045455,0.081944
792.249278,0.434848,0.152171
792.282670,0.063636,0.210617
792.316062,0.159091,0.049533
792.349454,0.134091,0.123456
792.382845,-0.045455,0.050820
792.416236,0.186364,0.064403
792.449627,-0.047727,0.051363
792.483018,0.463636,0.159610
792.516408,0.345455,0.136515
792.549798,1.702273,0.543703
792.583188,0.722727,0.226852
792.616578,0.372727,0.147500
792.649967,0.272727,0.115887
792.683356,0.163636,0.130321
792.716745,-0.093182,0.032201
792.750133,-0.347727,0.034970
792.783521,-0.403788,0.067449
792.816909,-0.281818,0.087787
792.850296,0.138636,0.038753
792.883684,-0.124242,0.037206
792.917071,-0.155303,0.018844
792.950457,0.095455,0.057631
792.983844,-0.300000,0.047019
793.017230,0.020455,0.039414
793.050616,-0.095455,0.057631
793.084001,0.122727,0.418003
793.117386,-0.025000,0.087751
793.150771,0.118182,0.039886
793.184156,-0.070455,0.067449
793.217541,-0.006818,0.119977
793.250925,0.070455,0.049832
793.284309,0.279545,0.032679
793.317692,-0.211364,0.069188
793.351075,0.181818,0.132522
793.384458,0.403788,0.165156
793.417841,0.070455,0.020423
793.451223,0.113636,0.126029
793.484606,0.155303,0.066988
793.517988,-0.050000,0.175501
793.551369,0.047727,0.040064
793.584750,-0.090909,0.032141
793.618131,-0.190909,0.172667
793.651512,0.020455,0.088044
793.684893,-0.341667,0.019911
793.718273,0.000000,0.064282
793.751653,-0.120455,0.055052
793.785032,0.068182,0.059047
793.818411,-0.138636,0.050347
793.851790,-0.093182,0.055705
793.885169,0.072727,0.118705
793.918548,0.622727,0.298645
793.951926,0.186364,0.085129
793.985304,0.217424,0.019117
794.018681,-0.022727,0.049533
794.052059,0.093182,0.064313
794.085436,-0.155303,0.018844
794.118812,-0.093182,0.032201
794.152189,0.000000,0.085038
794.185565,0.113636,0.155395
794.218941,-0.496970,0.021320
794.252317,0.124242,0.049167
794.285692,0.252273,0.182396
794.319067,0.093182,0.096444
794.352442,0.341667,0.067295
794.385816,2.620455,0.567985
794.419190,1.677273,0.265462
794.452564,1.906818,0.997985
794.485938,1.068182,0.450407
794.519311,0.386364,0.336141
794.552684,0.747727,0.346624
794.586057,-0.277273,0.070528
794.619429,0.248485,0.081057
794.652802,-0.528030,0.021651
794.686173,-0.062121,0.018603
794.719545,-0.124242,0.049167
794.752916,0.481818,0.178203
794.786287,0.479545,0.340080
794.819658,-0.031061,0.049101
794.853029,-0.095455,0.057631
794.886399,-0.118182,0.039886
794.919769,0.247727,0.178243
794.953138,0.002273,0.033767
794.986508,0.047727,0.023918
795.019877,0.063636,0.120003
795.053245,0.020455,0.075404
795.086614,0.372727,0.064763
795.119982,-0.022727,0.148599
795.153350,0.275000,0.156814
795.186718,0.020455,0.126555
795.220085,-0.248485,0.037483
795.253452,-0.352273,0.046508
795.286819,-0.068182,0.059047
795.320185,0.161364,0.098037
795.353551,-0.465909,0.033614
795.386917,0.000000,0.032141
795.420283,-0.155303,0.098248
795.453648,0.363636,0.251031
795.487013,-0.062121,0.074239
795.520378,0.062121,0.037137
795.553742,0.111364,0.104663
795.587107,0.209091,0.164957
795.620471,-0.025000,0.067831
795.653834,0.045455,0.068182
795.687197,-0.136364,0.068182
795.720560,0.277273,0.215166
795.753923,-0.165909,0.127693
795.787286,-0.186364,0.032381
795.820648,0.062121,0.049114
795.854010,0.040909,0.085129
795.887371,0.404545,0.235784
795.920733,0.311364,0.325379
795.954094,0.124242,0.080930
795.987454,0.031061,0.018568
796.020815,0.031061,0.080890
796.054175,-0.170455,0.187672
796.087535,-0.068182,0.098412
796.120894,-0.155303,0.049206
796.154254,0.393182,0.208383
796.187613,0.320455,0.251553
796.220971,0.679545,0.203923
796.254330,0.745455,0.066183
796.287688,1.327273,0.344316
796.321046,3.252273,0.426648
796.354403,4.997727,0.934477
796.387761,2.195455,0.414030
796.421118,0.372727,0.200876
796.454474,0.211364,0.171989
796.487831,0.155303,0.037258
796.521187,-0.062121,0.018603
796.554543,0.177273,0.156851
796.587898,0.161364,0.117233
796.621254,0.088636,0.158126
796.654609,-0.093182,0.115904
796.687963,-0.138636,0.050347
796.721318,0.186364,0.032381
796.754672,0.279545,0.096604
796.788026,-0.072727,0.134993
796.821379,0.454545,0.355011
796.854732,-0.279545,0.032679
796.888085,-0.095455,0.047835
796.921438,0.381818,0.395794
796.954790,0.454545,0.224989
796.988142,-0.211364,0.025587
797.021494,-0.031061,0.037119
797.054846,0.045455,0.093707
797.088197,0.025000,0.038753
797.121548,-0.070455,0.081335
797.154899,-0.025000,0.098824
797.188249,-0.022727,0.019682
797.221599,0.528030,0.075060
797.254949,0.155303,0.066988
797.288298,0.409091,0.254099
797.321648,-0.002273,0.033767
797.354996,0.062121,0.066920
797.388345,-0.093182,0.032201
797.421693,-0.093182,0.032201
797.455041,-0.150000,0.308849
797.488389,0.020455,0.060163
797.521737,0.124242,0.103353
797.555084,0.297727,0.102418
797.588431,0.456818,0.191783
797.621777,0.211364,0.099761
797.655124,0.368182,0.142350
797.688470,0.018182,0.115171
797.721815,-0.375000,0.109440
797.755161,-0.031061,0.018568
797.788506,0.302273,0.098195
797.821851,-0.124242,0.037206
797.855196,0.217424,0.098300
797.888540,0.486364,0.132268
797.921884,-0.393182,0.055982
797.955228,-0.155303,0.133855
797.988571,0.443182,0.068888
798.021914,0.072727,0.076331
798.055257,0.113636,0.087286
798.088599,0.756818,0.347413
798.121942,0.934091,0.281220
798.155284,0.745455,0.275066
798.188625,2.447727,0.709611
798.221967,4.845455,0.821420
798.255308,5.177273,0.828231
798.288649,1.428788,0.188006
798.321989,0.456818,0.168868
798.355329,0.643182,0.431020
798.388669,0.363636,0.140100
798.422009,0.434848,0.225939
798.455348,0.320455,0.148177
798.488687,0.372727,0.179128
798.522026,0.124242,0.158571
798.555365,-0.400000,0.075788
798.588703,-0.352273,0.120663
798.622041,0.113636,0.059047
798.655378,0.043182,0.052359
798.688716,0.065909,0.094003
798.722053,-0.022727,0.019682
798.755389,-0.062121,0.049114
798.788726,0.136364,0.050820
798.822062,0.217424,0.081017
798.855398,-0.254545,0.035791
798.888733,-0.163636,0.050206
798.922069,-0.095455,0.047835
798.955404,0.093182,0.085060
798.988738,-0.093182,0.140114
799.022073,-0.186364,0.055809
799.055407,0.161364,0.058421
799.088741,0.290909,0.183064
799.122074,0.000000,0.055670
799.155408,0.236364,0.125145
799.188741,0.161364,0.058421
799.222073,0.297727,0.140666
799.255406,0.118182,0.039886
799.288738,0.136364,0.118094
799.322069,0.202273,0.142671
799.355401,0.113636,0.059047
799.388732,-0.327273,0.070124
799.422063,0.111364,0.250214
799.455394,0.225000,0.200345
799.488724,0.188636,0.151895
799.522054,0.062121,0.098202
799.555384,-0.217424,0.049311
799.588713,-0.022727,0.074516
799.622042,-0.052273,0.103071
799.655371,0.403788,0.188523
799.688700,0.065909,0.068588
799.722028,-0.124242,0.037206
799.755356,0.136364,0.075378
799.788684,0.062121,0.049114
799.822011,0.124242,0.133840
799.855338,-0.062121,0.049114
799.888665,-0.161364,0.036699
799.921992,-0.062121,0.066920
799.955318,0.413636,0.096504
799.988644,0.403788,0.113198
800.021969,0.559091,0.225298
800.055295,1.056061,0.153523
800.088620,5.593182,1.217025
800.121945,6.150000,0.687353
800.155269,14.132576,2.268996
800.188593,8.140909,1.148488
800.221917,1.772727,0.364346
800.255241,0.590152,0.328539
800.288564,0.297727,0.129181
800.321887,0.811364,0.382107
800.355210,0.138636,0.081652
800.388532,0.247727,0.153316
800.421854,-0.025000,0.087751
800.455176,0.509091,0.143596
800.488498,0.365909,0.214899
800.521819,0.124242,0.018741
800.555140,0.402273,0.196781
800.588461,0.248485,0.092932
800.621781,0.284091,0.187672
800.655101,0.372727,0.056224
800.688421,0.511364,0.261796
800.721740,0.109091,0.205905
800.755060,0.072727,0.052223
800.788379,-0.163636,0.134226
800.821697,0.138636,0.122195
800.855015,0.000000,0.055670
800.888334,0.186364,0.055809
800.921651,-0.113636,0.108402
800.954969,0.350000,0.130697
800.988286,0.429545,0.246785
801.021603,0.000000,0.032141
801.054919,-0.186364,0.032381
801.088235,0.413636,0.163936
801.121551,-0.047727,0.099346
801.154867,-0.138636,0.103920
801.188183,0.293182,0.417593
801.221498,-0.147727,0.305500
801.254812,0.256818,0.093617
801.288127,0.302273,0.112878
801.321441,0.438636,0.189834
801.354755,0.181818,0.184637
801.388069,0.138636,0.067831
801.421382,0.304545,0.212558
801.454695,0.590909,0.360068
801.488008,0.062121,0.112884
801.521320,0.109091,0.187524
801.554632,0.248485,0.092932
801.587944,0.900758,0.347190
801.621256,-0.248485,0.067113
801.654567,0.372727,0.111618
801.687878,-0.090909,0.115887
801.721189,0.120455,0.139856
801.754499,0.306818,0.125901
801.787809,0.225000,0.250730
801.821119,0.038636,0.202218
801.854428,-0.217424,0.049311
801.887737,0.186364,0.115954
801.921046,1.646212,0.355744
801.954355,1.534091,0.582629
801.987663,3.913636,0.418595
802.020971,8.448485,1.388843
802.054279,18.884848,2.157143
802.087586,20.995455,2.449409
802.120894,6.678030,0.330279
802.154200,2.543182,0.409979
802.187507,0.652273,0.201194
802.220813,0.700000,0.245075
802.254119,0.843182,0.530626
802.287425,0.070455,0.152133
802.320730,0.047727,0.075745
802.354035,0.300000,0.179358
802.387340,0.155303,0.129939
802.420644,-0.163636,0.038569
802.453949,-0.375000,0.051764
802.487252,0.134091,0.100380
802.520556,0.840909,0.249742
802.553859,0.652273,0.147933
802.587162,-0.090909,0.045455
802.620465,0.618182,0.245707
802.653767,0.475000,0.242669
802.687069,-0.186364,0.032381
802.720371,0.120455,0.189970
802.753673,0.236364,0.147850
802.786974,-0.025000,0.087751
802.820275,0.136364,0.075378
802.853576,0.459091,0.158815
802.886876,0.109091,0.187524
802.920176,0.124242,0.066959
802.953476,-0.031818,0.157246
802.986775,0.297727,0.257438
803.020074,0.184091,0.044347
803.053373,0.902273,0.440269
803.086672,0.248485,0.259847
803.119970,0.202273,0.197358
803.153268,0.163636,0.219032
803.186565,-0.081818,0.204949
803.219863,0.120455,0.139856
803.253160,0.065909,0.060591
803.286457,0.465909,0.167300
803.319753,-0.006818,0.128298
803.353049,0.181818,0.190150
803.386345,0.124242,0.049167
803.419641,0.213636,0.140597
803.452936,0.163636,0.204394
803.486231,0.155303,0.018844
803.519525,-0.062121,0.112884
803.552820,0.234091,0.189289
803.586114,0.186364,0.055809
803.619408,0.702273,0.203669
803.652701,0.124242,0.049167
803.685994,0.124242,0.066959
803.719287,0.068182,0.087286
803.752580,0.829545,0.200963
803.785872,0.445455,0.151644
803.819164,0.727273,0.332471
803.852456,1.234091,0.178040
803.885747,3.727273,0.224989
803.919038,7.722727,1.000524
803.952329,15.554545,2.194673
803.985620,30.050000,2.544889
804.018910,26.550758,0.277087
804.052200,11.425000,0.883991
804.085489,1.987879,0.200825
804.118779,1.329545,0.185596
804.152068,-0.062121,0.241241
804.185357,-0.093182,0.085060
804.218645,0.638636,0.343781
804.251933,0.338636,0.348927
804.285221,0.275000,0.189616
804.318508,0.306818,0.373231
804.351796,0.186364,0.147342
804.385083,-0.186364,0.140156
804.418369,0.438636,0.187093
804.451656,0.093182,0.115904
804.484942,0.154545,0.116509
804.518227,1.004545,0.392617
804.551513,0.434848,0.081407
804.584798,0.186364,0.147342
804.618083,0.327273,0.159933
804.651367,0.156818,0.099864
804.684652,-0.393182,0.045836
804.717936,-0.115909,0.019117
804.751219,0.454545,0.236189
804.784503,0.256818,0.050654
804.817786,0.496970,0.219032
804.851068,0.777273,0.243118
804.884351,-0.093182,0.064313
804.917633,0.425000,0.279155
804.950915,0.090909,0.242661
804.984196,0.579545,0.262780
805.017478,0.000000,0.111340
805.050759,0.179545,0.225685
805.084039,0.650000,0.082165
805.117320,0.465909,0.257318
805.150600,0.465909,0.111775
805.183879,0.490909,0.172966
805.217159,0.217424,0.112970
805.250438,0.834091,0.200165
805.283717,0.415909,0.120621
805.316995,-0.170455,0.234198
805.350274,0.511364,0.074299
805.383552,0.329545,0.206665
805.416829,-0.027273,0.123399
805.450107,0.768182,0.436476
805.483384,0.465909,0.475748
805.516660,0.186364,0.210801
805.549937,-0.050000,0.105700
805.583213,0.279545,0.179052
805.616489,0.631818,0.094339
805.649764,1.366667,0.215945
805.683040,0.248485,0.103453
805.716315,0.465909,0.085605
805.749589,1.087121,0.029524
805.782864,1.388636,0.259238
805.816138,3.634091,0.427253
805.849411,15.240909,0.801171
805.882685,33.775000,3.183645
805.915958,54.185227,3.245831
805.949231,76.113636,5.566593
805.982504,28.145455,2.876156
806.015776,7.361364,1.346638
806.049048,2.453788,0.143502
806.082319,2.593182,0.513308
806.115591,0.790909,0.530418
806.148862,0.913636,0.368455
806.182133,0.613636,0.307239
806.215403,0.468182,0.156587
806.248673,0.186364,0.257160
806.281943,0.690909,0.112080
806.315213,0.118182,0.039886
806.348482,0.252273,0.151452
806.381751,0.714394,0.262210
806.415019,0.838636,0.407070
806.448288,0.590909,0.318992
806.481556,0.341667,0.209248
806.514823,0.409091,0.277422
806.548091,0.672727,0.189497
806.581358,0.479545,0.250936
806.614625,1.377273,0.349638
806.647891,1.025000,0.432958
806.681158,0.654545,0.208398
806.714424,-0.138636,0.050347
806.747689,-0.093182,0.064313
806.780955,-0.095455,0.102726
806.814220,0.415909,0.120621
806.847484,-0.031061,0.066910
806.880749,0.403788,0.067449
806.914013,0.352273,0.444890
806.947277,-0.370455,0.069930
806.980540,0.152273,0.229160
807.013803,0.325000,0.103571
807.047066,0.372727,0.255234
807.080329,0.502273,0.280300
807.113591,0.434848,0.098622
807.146853,0.538636,0.201835
807.180115,0.272727,0.291051
807.213376,-0.118182,0.142077
807.246637,1.106818,0.406156
807.279898,0.470455,0.338451
807.313159,0.310606,0.218879
807.346419,1.122727,0.165566
807.379679,-0.248485,0.049376
807.412938,0.072727,0.134993
807.446198,0.570455,0.285413
807.479457,0.838636,0.211507
807.512715,0.776515,0.177778
807.545974,0.622727,0.249659
807.579232,1.180303,0.415275
807.612490,0.415909,0.265206
807.645747,1.168182,0.182767
807.679004,1.518182,0.459001
807.712261,1.646212,0.099085
807.745518,5.725000,0.726423
807.778774,19.785606,1.815738
807.812030,42.677273,3.817859
807.845285,92.461364,9.215377
807.878541,146.233333,12.317128
807.911796,92.971212,8.326040
807.945051,31.152273,1.610026
807.978305,10.187879,0.681939
808.011559,3.786364,0.656763
808.044813,2.112121,0.500269
808.078066,3.634091,0.692942
808.111320,0.936364,0.570215
808.144573,0.554545,0.218608
808.177825,-0.062121,0.103328
808.211078,1.354545,0.539992
808.244330,0.972727,0.062158
808.277581,0.504545,0.197649
808.310833,0.529545,0.295601
808.344084,0.118182,0.113818
808.377335,-0.354545,0.110689
808.410585,0.070455,0.020423
808.443835,-0.006818,0.187231
808.477085,0.984091,0.238547
808.510335,0.261364,0.342562
808.543584,0.652273,0.334305
808.576833,0.559091,0.167428
808.610082,1.097727,0.549543
808.643330,0.403788,0.196571
808.676578,1.415909,0.291200
808.709826,0.700000,0.414285
808.743073,0.341667,0.158713
808.776320,0.062121,0.121692
808.809567,1.070455,0.280944
808.842814,1.538636,0.417507
808.876060,1.025000,0.180260
808.909306,0.776515,0.328712
808.942552,0.184091,0.095907
808.975797,-0.124242,0.080930
809.009042,0.659091,0.390188
809.042287,0.856818,0.266954
809.075531,0.528030,0.232783
809.108775,0.245455,0.185586
809.142019,0.621212,0.343926
809.175262,1.366667,0.247174
809.208506,0.807576,0.262330
809.241748,0.618182,0.312349
809.274991,0.590152,0.549684
809.308233,0.461364,0.211824
809.341475,-0.248485,0.067113
809.374717,0.422727,0.268018
809.407958,1.134091,0.306193
809.441199,1.704545,0.508578
809.474440,-1.113636,0.191166
809.507680,-1.584091,0.447772
809.540921,-0.493182,0.413841
809.574160,0.310606,0.698563
809.607400,1.832576,0.374530
809.640639,2.856818,0.309932
809.673878,5.338636,0.296072
809.707117,11.343182,1.179632
809.740355,30.665909,2.092226
809.773593,63.891667,5.728838
809.806831,133.374242,9.140039
809.840068,218.418182,10.385481
809.873305,104.999242,6.442274
809.906542,28.855303,1.886209
809.939778,8.193182,0.706444
809.973015,5.690909,0.836635
810.006250,4.911364,0.755971
810.039486,4.068939,0.410960
810.072721,1.718182,0.341454
810.105956,1.193182,0.454652
810.139191,1.295455,0.323614
810.172425,0.217424,0.177080
810.205659,0.962879,0.114694
810.238893,1.195455,0.200554
810.272126,0.528030,0.510685
810.305359,1.304545,0.435671
810.338592,1.713636,0.510160
810.371825,2.700000,0.479260
810.405057,1.443182,0.214634
810.438289,1.200000,0.392649
810.471520,0.993939,0.189497
810.504751,1.956818,0.622125
810.537982,1.956818,0.183666
810.571213,0.422727,0.332370
810.604443,0.363636,0.213201
810.637673,0.984091,0.352212
810.670903,1.311364,0.274960
810.704133,0.945455,0.374773
810.737362,1.379545,0.221713
810.770591,1.240909,0.414279
810.803819,0.496970,0.323718
810.837047,1.149242,0.290880
810.870275,1.627273,0.365139
810.903503,1.590909,0.485854
810.936730,1.713636,0.213043
810.969957,0.011364,0.208531
811.003184,0.181818,0.055670
811.036410,1.309091,0.451764
811.069636,1.627273,0.740965
811.102862,1.646212,0.118111
811.136087,1.702273,0.238699
811.169312,2.956818,0.404844
811.202537,1.788636,0.480652
811.235762,0.884091,0.081017
811.268986,1.634091,0.285141
811.302210,1.654545,0.852827
811.335433,2.570455,0.625519
811.368656,1.954545,0.701607
811.401879,1.832576,0.403732
811.435102,3.199242,0.402412
811.468324,5.890909,0.876483
811.501546,5.231818,0.929551
811.534768,3.230303,0.412661
811.567990,4.815909,0.512250
811.601211,3.944697,0.696103
811.634432,5.963636,0.340697
811.667652,15.157576,0.897978
811.700872,32.675758,2.607495
811.734092,68.302273,5.057299
811.767312,118.154545,4.974349
811.800531,237.334091,16.125478
811.833750,129.390152,7.131719
811.866969,42.118182,2.155892
811.900187,14.856818,0.840776
811.933405,8.009091,1.059715
811.966623,3.665152,0.300026
811.999840,3.254545,0.668074
812.033057,2.752273,0.858088
812.066274,1.434091,0.160718
812.099490,2.453788,0.332368
812.132707,0.993939,0.166267
812.165923,1.425000,0.333609
812.199138,1.736364,0.835709
812.232353,-0.186364,0.115954
812.265568,1.552273,0.510361
812.298783,1.870455,0.368692
812.331997,1.801515,0.139120
812.365211,1.095455,0.678183
812.398425,1.643182,0.598322
812.431638,1.227273,0.470734
812.464851,0.310606,0.237007
812.498064,0.806818,0.266198
812.531277,0.459091,0.466009
812.564489,0.779545,0.169722
812.597701,0.931818,0.059047
812.630912,1.429545,0.552000
812.664123,1.918182,0.469812
