#{
#    "background_file": "Backgrounds\\\\bg_787.999nm_13bin_219st_244en_10.0s_110g_4x_5_seq.txt",
#    "ccd_image_settings": [
#        1,
#        13,
#        1,
#        1600,
#        219,
#        244
#    ],
#    "ccd_temperature": "-87",
#    "cdRatios": {
#        "mean": 0.9372114520497679,
#        "std": 0.012876293444798301
#    },
#    "center_lambda": 786.0,
#    "comments": "",
#    "dark_region": 6.473588109637816,
#    "date": "10/22/20 15:31:39PM",
#    "eff_field": 1.5,
#    "exposure": 10.0,
#    "fel_lambda": "15.0",
#    "fel_pol": "H",
#    "fel_pulses": 42,
#    "fel_pyro_cal": "0.012",
#    "fel_reprate": "1.07",
#    "fel_transmission": "1.0",
#    "fel_transmission_fits": {
#        "A": 1.0,
#        "C": 0.0,
#        "Mu": 0.0
#    },
#    "fieldInt": {
#        "mean": 5243.6325541666665,
#        "std": 679.8502778252802
#    },
#    "fieldStrength": {
#        "mean": 33.01719583333333,
#        "std": 2.4387760719202056
#    },
#    "fpTime": {
#        "mean": 1.169737995121453,
#        "std": 0.13160188089791988
#    },
#    "gain": 110,
#    "grating": 3,
#    "images_in_sequence": [
#        "hsg_820nm_c123_a45_HAna305.txt",
#        "hsg_820nm_c123_a45_HAna306.txt",
#        "hsg_820nm_c123_a45_HAna307.txt",
#        "hsg_820nm_c123_a45_HAna308.txt"
#    ],
#    "nir_lambda": "819.98",
#    "nir_pola": "45",
#    "nir_polg": "0",
#    "nir_power": "100.0",
#    "pulseEnergies": {
#        "mean": 1.6188375,
#        "std": 0.2208231886297802
#    },
#    "pyroVoltage": {
#        "mean": 0.1442352419235904,
#        "std": 0.020655213801268675
#    },
#    "rotatorAngle": 202.4999963378817,
#    "sample_Temp": "55",
#    "sample_name": "L001218.C1",
#    "series": "820_Fan",
#    "slits": "60",
#    "spec_step": "",
#    "window_trans": 0.92,
#    "y_max": 2,
#    "y_min": 1
#}
#
#
#
#
#
#
#
#
#
#
#
#
#
#
#
#
#
#
#
#
#
#
#
#
#
#
Wavelength,Signal,error
nm,arb. u.,arb.u.
Wavelength,820_Fan,error
759.194366,-0.191919,0.064875
759.228015,-0.447811,0.042356
759.261663,-0.063973,0.080939
759.295311,0.255892,0.130420
759.328959,0.095960,0.085150
759.362607,0.000000,0.032141
759.396254,0.255892,0.021918
759.429901,0.351852,0.068803
759.463548,-0.031987,0.037142
759.497194,0.159933,0.177170
759.530841,0.159933,0.098463
759.564487,0.031987,0.037142
759.598133,-0.063973,0.080939
759.631779,-0.031987,0.018614
759.665424,-0.223906,0.122112
759.699069,0.095960,0.064431
759.732714,0.383838,0.170973
759.766359,0.127946,0.019452
759.800003,0.159933,0.067303
759.833648,0.159933,0.214131
759.867292,-0.031987,0.049118
759.900935,0.031987,0.066923
759.934579,0.255892,0.204457
759.968222,0.031987,0.037142
760.001865,0.383838,0.336020
760.035508,0.095960,0.032437
760.069151,-0.511785,0.207952
760.102793,0.063973,0.066971
760.136435,-0.063973,0.018784
760.170077,0.447811,0.205142
760.203718,0.319865,0.023599
760.237360,0.000000,0.032141
760.271001,-0.095960,0.085150
760.304642,0.095960,0.032437
760.338283,0.063973,0.066971
760.371923,0.031987,0.037142
760.405563,-0.223906,0.050146
760.439203,0.031987,0.066923
760.472843,-0.127946,0.049442
760.506482,-0.031987,0.049118
760.540122,0.000000,0.064282
760.573761,0.223906,0.074925
760.607399,0.127946,0.074456
760.641038,-0.031987,0.080900
760.674676,-0.159933,0.019937
760.708314,-0.319865,0.068477
760.741952,-0.127946,0.067161
760.775589,-0.159933,0.019937
760.809227,0.127946,0.019452
760.842864,0.223906,0.067681
760.876501,0.063973,0.066971
760.910137,-0.223906,0.038491
760.943774,0.159933,0.019937
760.977410,0.127946,0.049442
761.011046,0.095960,0.140169
761.044681,-0.223906,0.050146
761.078317,-0.351852,0.051649
761.111952,0.031987,0.103330
761.145587,-0.095960,0.004374
761.179221,0.095960,0.085150
761.212856,-0.095960,0.055842
761.246490,-0.287879,0.013122
761.280124,0.000000,0.115887
761.313758,-0.031987,0.066923
761.347391,-0.351852,0.130883
761.381024,-0.159933,0.067303
761.414657,-0.767677,0.047512
761.448290,0.319865,0.188894
761.481923,-0.287879,0.034716
761.515555,-0.319865,0.023599
761.549187,0.000000,0.055670
761.582819,0.000000,0.000000
761.616450,-0.095960,0.055842
761.650082,0.095960,0.111426
761.683713,0.351852,0.051649
761.717344,-0.255892,0.103976
761.750974,0.383838,0.141188
761.784605,-0.447811,0.053170
761.818235,0.063973,0.049183
761.851865,0.351852,0.207261
761.885494,0.319865,0.183343
761.919124,0.000000,0.032141
761.952753,-0.095960,0.032437
761.986382,0.063973,0.049183
762.020010,-0.735690,0.050019
762.053639,-0.191919,0.008748
762.087267,0.127946,0.081097
762.120895,0.063973,0.092830
762.154523,0.191919,0.008748
762.188150,0.063973,0.018784
762.221777,0.063973,0.103361
762.255404,0.415825,0.250374
762.289031,-0.191919,0.056353
762.322658,0.351852,0.122737
762.356284,0.191919,0.033310
762.389910,0.255892,0.038903
762.423536,0.095960,0.280235
762.457161,0.223906,0.103822
762.490786,0.191919,0.033310
762.524411,0.255892,0.260056
762.558036,0.287879,0.116627
762.591661,0.287879,0.086044
762.625285,0.000000,0.128565
762.658909,0.319865,0.099270
762.692533,0.191919,0.056353
762.726157,-0.095960,0.064431
762.759780,0.319865,0.099270
762.793403,0.319865,0.075645
762.827026,0.095960,0.032437
762.860649,0.415825,0.270218
762.894271,-0.063973,0.049183
762.927893,0.031987,0.018614
762.961515,-0.095960,0.032437
762.995137,0.000000,0.000000
763.028758,0.063973,0.103361
763.062379,-0.159933,0.067303
763.096000,0.063973,0.018784
763.129621,0.000000,0.000000
763.163241,-0.287879,0.013122
763.196862,0.191919,0.179168
763.230481,-0.063973,0.018784
763.264101,0.063973,0.121720
763.297721,-0.223906,0.050146
763.331340,0.127946,0.049442
763.364959,0.159933,0.037823
763.398578,-0.191919,0.033310
763.432196,0.095960,0.055842
763.465814,0.671717,0.335422
763.499432,0.511785,0.220021
763.533050,-0.095960,0.055842
763.566668,-0.223906,0.038491
763.600285,0.063973,0.092830
763.633902,-0.607744,0.046312
763.667519,-0.255892,0.103976
763.701135,0.063973,0.098236
763.734752,-0.031987,0.018614
763.768368,-0.095960,0.055842
763.801984,-0.255892,0.050463
763.835599,-0.287879,0.057196
763.869215,-0.319865,0.099270
763.902830,-0.223906,0.050146
763.936444,0.000000,0.032141
763.970059,-0.063973,0.018784
764.003673,0.159933,0.081215
764.037288,0.319865,0.298998
764.070901,-0.319865,0.093922
764.104515,0.255892,0.237204
764.138128,0.095960,0.064431
764.171742,-0.415825,0.052628
764.205354,0.159933,0.152068
764.238967,-0.000000,0.085038
764.272580,0.063973,0.018784
764.306192,-0.191919,0.033310
764.339804,0.000000,0.055670
764.373415,0.063973,0.066971
764.407027,-0.415825,0.041673
764.440638,0.095960,0.032437
764.474249,-0.223906,0.038491
764.507860,-0.223906,0.103822
764.541470,-0.287879,0.034716
764.575080,-0.095960,0.111426
764.608690,-0.255892,0.021918
764.642300,-0.127946,0.049442
764.675909,0.159933,0.019937
764.709519,0.287879,0.086044
764.743128,0.159933,0.130102
764.776736,0.159933,0.113111
764.810345,0.191919,0.033310
764.843953,-0.063973,0.037228
764.877561,-0.095960,0.004374
764.911169,0.159933,0.067303
764.944776,0.063973,0.066971
764.978384,0.063973,0.018784
765.011991,0.159933,0.081215
765.045598,0.000000,0.032141
765.079204,-0.095960,0.064431
765.112810,-0.159933,0.074584
765.146416,-0.063973,0.066971
765.180022,0.159933,0.152068
765.213628,-0.127946,0.037569
765.247233,-0.000000,0.085038
765.280838,0.479798,0.171476
765.314443,0.031987,0.049118
765.348048,-0.479798,0.059812
765.381652,-0.479798,0.059812
765.415256,0.351852,0.130883
765.448860,0.000000,0.111340
765.482463,-0.319865,0.177619
765.516067,-0.063973,0.049183
765.549670,-0.191919,0.033310
765.583273,-0.031987,0.049118
765.616875,0.127946,0.074456
765.650478,0.000000,0.032141
765.684080,-0.127946,0.049442
765.717682,0.095960,0.064431
765.751283,-0.095960,0.055842
765.784885,-0.159933,0.037823
765.818486,0.063973,0.018784
765.852087,0.351852,0.262266
765.885687,-0.159933,0.098463
765.919288,0.191919,0.056353
765.952888,0.287879,0.116627
765.986488,-0.031987,0.049118
766.020087,0.159933,0.152068
766.053687,0.255892,0.317312
766.087286,0.255892,0.067916
766.120885,0.000000,0.032141
766.154484,-0.063973,0.074284
766.188082,-0.447811,0.083423
766.221680,0.287879,0.195947
766.255278,0.223906,0.185848
766.288876,-0.031987,0.049118
766.322473,0.511785,0.160256
766.356070,0.479798,0.226049
766.389667,0.223906,0.081528
766.423264,0.031987,0.049118
766.456860,0.159933,0.049635
766.490457,0.191919,0.056353
766.524053,0.000000,0.000000
766.557648,-0.031987,0.092795
766.591244,0.287879,0.086044
766.624839,0.735690,0.408360
766.658434,0.223906,0.038491
766.692029,0.031987,0.037142
766.725623,0.127946,0.049442
766.759217,-0.031987,0.049118
766.792811,0.127946,0.103484
766.826405,0.063973,0.037228
766.859999,0.063973,0.049183
766.893592,-0.479798,0.038876
766.927185,0.383838,0.112707
766.960777,-0.095960,0.032437
766.994370,-0.575758,0.041494
767.027962,-0.063973,0.066971
767.061554,-0.255892,0.021918
767.095146,0.959596,0.297809
767.128737,-0.191919,0.033310
767.162329,0.095960,0.004374
767.195920,-0.031987,0.074241
767.229510,-0.095960,0.032437
767.263101,-0.031987,0.066923
767.296691,-0.383838,0.017495
767.330281,-0.063973,0.018784
767.363871,0.000000,0.000000
767.397460,-0.127946,0.037569
767.431050,-0.095960,0.055842
767.464639,-0.191919,0.085486
767.498227,0.127946,0.130028
767.531816,0.000000,0.064282
767.565404,0.031987,0.018614
767.598992,0.063973,0.018784
767.632580,-0.191919,0.064875
767.666168,-0.415825,0.041673
767.699755,0.191919,0.085486
767.733342,0.191919,0.033310
767.766929,0.095960,0.032437
767.800515,-0.063973,0.129930
767.834101,0.127946,0.067161
767.867687,0.063973,0.049183
767.901273,-0.191919,0.085486
767.934859,0.095960,0.032437
767.968444,0.000000,0.000000
768.002029,-0.095960,0.032437
768.035614,-0.255892,0.038903
768.069198,0.095960,0.055842
768.102783,0.063973,0.018784
768.136367,0.159933,0.049635
768.169950,-0.031987,0.049118
768.203534,-0.127946,0.049442
768.237117,-0.095960,0.064431
768.270700,-0.063973,0.049183
768.304283,-0.063973,0.129930
768.337866,-0.127946,0.019452
768.371448,0.159933,0.037823
768.405030,-0.031987,0.018614
768.438612,-0.159933,0.049635
768.472193,0.063973,0.112914
768.505775,-0.063973,0.018784
768.539356,0.287879,0.065608
768.572936,-0.191919,0.033310
768.606517,0.095960,0.032437
768.640097,-0.063973,0.018784
768.673677,0.127946,0.037569
768.707257,-0.191919,0.033310
768.740836,-0.159933,0.081215
768.774416,0.000000,0.032141
768.807995,0.095960,0.064431
768.841574,0.735690,0.087562
768.875152,0.031987,0.066923
768.908730,-0.063973,0.037228
768.942308,0.095960,0.004374
768.975886,0.319865,0.023599
769.009464,0.031987,0.037142
769.043041,0.767677,0.363899
769.076618,0.095960,0.032437
769.110195,0.191919,0.064875
769.143771,-0.255892,0.081724
769.177348,0.223906,0.130297
769.210924,-0.127946,0.103484
769.244499,-0.159933,0.037823
769.278075,-0.575758,0.041494
769.311650,0.575758,0.391894
769.345225,0.575758,0.061546
769.378800,0.191919,0.210946
769.412375,0.095960,0.032437
769.445949,-0.095960,0.055842
769.479523,0.575758,0.099931
769.513097,0.127946,0.067161
769.546670,-0.319865,0.082190
769.580243,-0.127946,0.049442
769.613816,0.063973,0.049183
769.647389,-0.031987,0.049118
769.680962,-0.223906,0.038491
769.714534,0.127946,0.049442
769.748106,0.159933,0.193875
769.781678,0.031987,0.080900
769.815249,0.159933,0.098463
769.848820,0.000000,0.064282
769.882391,-0.031987,0.037142
769.915962,0.223906,0.067681
769.949533,0.000000,0.055670
769.983103,0.319865,0.196927
770.016673,-0.095960,0.032437
770.050243,-0.191919,0.170300
770.083812,0.000000,0.032141
770.117381,-0.095960,0.055842
770.150950,0.031987,0.066923
770.184519,0.447811,0.076982
770.218088,-0.223906,0.021178
770.251656,-0.191919,0.033310
770.285224,0.159933,0.019937
770.318791,-0.031987,0.092795
770.352359,-0.479798,0.067901
770.385926,-0.319865,0.023599
770.419493,0.223906,0.021178
770.453060,0.191919,0.085486
770.486626,0.095960,0.032437
770.520192,0.287879,0.167525
770.553758,-0.159933,0.081215
770.587324,0.095960,0.032437
770.620890,0.351852,0.068803
770.654455,0.383838,0.097998
770.688020,-0.063973,0.133846
770.721584,0.000000,0.064282
770.755149,0.063973,0.066971
770.788713,-0.255892,0.050463
770.822277,0.095960,0.032437
770.855841,0.095960,0.085150
770.889404,-0.031987,0.049118
770.922967,0.191919,0.056353
770.956530,0.000000,0.032141
770.990093,0.191919,0.170300
771.023655,0.031987,0.037142
771.057217,-0.127946,0.152005
771.090779,0.159933,0.074584
771.124341,0.063973,0.080939
771.157902,0.063973,0.121720
771.191463,0.159933,0.049635
771.225024,-0.063973,0.049183
771.258585,-0.031987,0.037142
771.292145,0.095960,0.055842
771.325705,0.159933,0.019937
771.359265,-0.191919,0.056353
771.392825,0.000000,0.032141
771.426384,-0.127946,0.037569
771.459943,-0.031987,0.037142
771.493502,0.063973,0.018784
771.527061,0.063973,0.049183
771.560619,-0.031987,0.018614
771.594177,0.127946,0.188421
771.627735,0.159933,0.067303
771.661293,0.159933,0.019937
771.694850,-0.223906,0.050146
771.728407,-0.159933,0.074584
771.761964,0.095960,0.111426
771.795521,0.255892,0.148911
771.829077,-0.287879,0.034716
771.862633,0.319865,0.039874
771.896189,0.287879,0.129233
771.929744,-0.031987,0.049118
771.963300,0.063973,0.037228
771.996855,0.000000,0.032141
772.030409,-0.223906,0.021178
772.063964,0.031987,0.037142
772.097518,-0.159933,0.049635
772.131072,0.000000,0.000000
772.164626,-0.063973,0.018784
772.198180,0.351852,0.099494
772.231733,0.031987,0.018614
772.265286,-0.063973,0.037228
772.298839,0.415825,0.052628
772.332391,0.511785,0.229219
772.365943,0.031987,0.080900
772.399495,0.255892,0.315680
772.433047,-0.095960,0.032437
772.466598,-0.031987,0.049118
772.500150,-0.031987,0.018614
772.533701,-0.383838,0.036594
772.567251,0.000000,0.000000
772.600802,-0.031987,0.049118
772.634352,0.831650,0.217338
772.667902,-0.479798,0.021869
772.701452,0.191919,0.033310
772.735001,0.159933,0.037823
772.768550,0.319865,0.113814
772.802099,0.000000,0.064282
772.835648,-0.031987,0.018614
772.869196,-0.031987,0.018614
772.902744,0.000000,0.064282
772.936292,0.095960,0.085150
772.969840,0.127946,0.019452
773.003387,-0.223906,0.038491
773.036934,0.191919,0.128862
773.070481,0.159933,0.049635
773.104028,0.095960,0.055842
773.137574,0.000000,0.032141
773.171120,-0.319865,0.039874
773.204666,0.031987,0.080900
773.238212,-0.223906,0.038491
773.271757,-0.351852,0.051649
773.305302,0.159933,0.037823
773.338847,-0.095960,0.055842
773.372391,0.255892,0.050463
773.405936,-0.031987,0.018614
773.439480,0.095960,0.085150
773.473024,0.127946,0.019452
773.506567,0.191919,0.033310
773.540110,-0.031987,0.018614
773.573653,0.095960,0.032437
773.607196,-0.095960,0.004374
773.640739,0.000000,0.032141
773.674281,-0.063973,0.103361
773.707823,-0.575758,0.026243
773.741365,0.031987,0.080900
773.774906,0.415825,0.325692
773.808447,0.000000,0.147290
773.841988,0.415825,0.052628
773.875529,0.127946,0.049442
773.909070,-0.159933,0.037823
773.942610,-0.063973,0.049183
773.976150,-0.607744,0.072415
774.009689,-0.031987,0.018614
774.043229,0.351852,0.207261
774.076768,0.095960,0.085150
774.110307,0.319865,0.243806
774.143845,-0.063973,0.037228
774.177384,-0.031987,0.049118
774.210922,0.000000,0.055670
774.244460,-0.191919,0.033310
774.277997,0.000000,0.064282
774.311535,0.063973,0.098236
774.345072,-0.031987,0.018614
774.378609,-0.063973,0.018784
774.412145,0.447811,0.205142
774.445682,0.031987,0.049118
774.479218,0.255892,0.081724
774.512754,-0.095960,0.032437
774.546289,-0.031987,0.037142
774.579824,-0.063973,0.037228
774.613359,0.223906,0.081528
774.646894,0.031987,0.018614
774.680429,0.351852,0.051649
774.713963,-0.063973,0.049183
774.747497,0.159933,0.067303
774.781031,-0.223906,0.021178
774.814564,0.063973,0.066971
774.848097,0.287879,0.057196
774.881630,0.095960,0.096523
774.915163,0.000000,0.055670
774.948696,0.415825,0.131273
774.982228,0.639731,0.179406
775.015760,-0.127946,0.019452
775.049291,0.031987,0.103330
775.082823,0.031987,0.129905
775.116354,0.255892,0.067916
775.149885,0.159933,0.019937
775.183416,0.031987,0.080900
775.216946,0.127946,0.037569
775.250476,-0.287879,0.034716
775.284006,-0.031987,0.018614
775.317535,0.159933,0.067303
775.351065,-0.223906,0.050146
775.384594,-0.191919,0.056353
775.418123,0.000000,0.115887
775.451651,0.063973,0.049183
775.485180,-0.063973,0.080939
775.518708,-0.351852,0.104557
775.552235,0.031987,0.074241
775.585763,0.159933,0.019937
775.619290,-0.511785,0.084184
775.652817,0.191919,0.056353
775.686344,-0.031987,0.037142
775.719870,0.223906,0.021178
775.753397,0.031987,0.018614
775.786923,0.095960,0.032437
775.820448,-0.031987,0.066923
775.853974,0.671717,0.172809
775.887499,0.223906,0.093343
775.921024,-0.063973,0.018784
775.954549,0.191919,0.064875
775.988073,0.255892,0.093514
776.021597,0.159933,0.134013
776.055121,-0.095960,0.032437
776.088645,0.191919,0.033310
776.122168,0.383838,0.141188
776.155691,0.319865,0.023599
776.189214,0.159933,0.081215
776.222737,-0.031987,0.066923
776.256259,0.000000,0.055670
776.289781,0.159933,0.121903
776.323303,0.063973,0.018784
776.356824,0.000000,0.167011
776.390346,-0.031987,0.037142
776.423867,0.095960,0.032437
776.457387,-0.223906,0.021178
776.490908,-0.031987,0.098204
776.524428,-0.127946,0.098366
776.557948,-0.063973,0.049183
776.591468,0.031987,0.037142
776.624987,-0.127946,0.019452
776.658506,0.095960,0.128639
776.692025,0.159933,0.049635
776.725544,-0.255892,0.067916
776.759062,0.159933,0.081215
776.792581,-0.383838,0.086819
776.826099,-0.031987,0.066923
776.859616,-0.127946,0.037569
776.893134,0.031987,0.037142
776.926651,0.159933,0.049635
776.960167,-0.223906,0.081528
776.993684,0.031987,0.080900
777.027200,0.127946,0.049442
777.060716,0.287879,0.086044
777.094232,0.255892,0.177404
777.127748,0.095960,0.032437
777.161263,-0.223906,0.093343
777.194778,0.031987,0.049118
777.228293,-0.063973,0.066971
777.261807,-0.671717,0.063534
777.295322,0.095960,0.064431
777.328836,0.127946,0.019452
777.362349,0.031987,0.018614
777.395863,-0.063973,0.074284
777.429376,0.000000,0.195507
777.462889,0.063973,0.018784
777.496401,-0.191919,0.056353
777.529914,-0.095960,0.032437
777.563426,0.159933,0.049635
777.596938,-0.031987,0.121693
777.630449,-0.223906,0.021178
777.663961,0.223906,0.021178
777.697472,0.063973,0.092830
777.730983,-0.031987,0.066923
777.764493,0.095960,0.032437
777.798004,0.351852,0.051649
777.831514,-0.191919,0.033310
777.865023,-0.191919,0.147549
777.898533,0.127946,0.130028
777.932042,0.127946,0.067161
777.965551,0.031987,0.037142
777.999060,0.287879,0.201150
778.032568,0.095960,0.032437
778.066076,0.223906,0.050146
778.099584,0.415825,0.069540
778.133092,0.031987,0.037142
778.166599,0.063973,0.092830
778.200107,-0.031987,0.018614
778.233613,-0.031987,0.018614
778.267120,0.383838,0.141188
778.300626,0.000000,0.032141
778.334132,0.000000,0.055670
778.367638,0.063973,0.018784
778.401144,0.031987,0.112886
778.434649,-0.031987,0.049118
778.468154,-0.255892,0.038903
778.501659,0.031987,0.037142
778.535163,0.031987,0.080900
778.568668,0.159933,0.148633
778.602172,0.127946,0.049442
778.635675,0.063973,0.066971
778.669179,0.000000,0.032141
778.702682,0.063973,0.018784
778.736185,-0.063973,0.049183
778.769688,-0.095960,0.032437
778.803190,0.095960,0.032437
778.836692,-0.031987,0.018614
778.870194,-0.031987,0.018614
778.903696,0.031987,0.066923
778.937197,0.255892,0.021918
778.970698,0.287879,0.116627
779.004199,0.095960,0.128639
779.037699,-0.031987,0.049118
779.071200,-0.351852,0.040430
779.104700,-0.191919,0.064875
779.138199,0.031987,0.112886
779.171699,-0.095960,0.032437
779.205198,0.447811,0.377213
779.238697,0.000000,0.032141
779.272196,0.255892,0.081724
779.305694,-0.031987,0.018614
779.339192,0.000000,0.085038
779.372690,-0.095960,0.004374
779.406188,-0.095960,0.032437
779.439685,0.031987,0.098204
779.473182,0.095960,0.111426
779.506679,-0.031987,0.049118
779.540176,0.000000,0.032141
779.573672,0.127946,0.049442
779.607168,0.031987,0.018614
779.640664,-0.159933,0.037823
779.674160,0.191919,0.056353
779.707655,0.127946,0.019452
779.741150,0.287879,0.034716
779.774644,-0.031987,0.018614
779.808139,-0.127946,0.019452
779.841633,-0.191919,0.033310
779.875127,0.127946,0.037569
779.908621,-0.031987,0.037142
779.942114,0.000000,0.032141
779.975607,0.191919,0.008748
780.009100,0.000000,0.064282
780.042593,-0.063973,0.018784
780.076085,-0.031987,0.049118
780.109577,0.063973,0.066971
780.143069,0.223906,0.098722
780.176560,-0.031987,0.049118
780.210052,-0.031987,0.018614
780.243543,-0.127946,0.037569
780.277033,-0.063973,0.080939
780.310524,-0.255892,0.098883
780.344014,-0.127946,0.037569
780.377504,0.031987,0.049118
780.410994,0.159933,0.098463
780.444483,-0.063973,0.049183
780.477972,0.351852,0.204753
780.511461,0.000000,0.085038
780.544950,0.223906,0.214250
780.578438,0.383838,0.179808
780.611926,0.159933,0.098463
780.645414,0.127946,0.074456
780.678902,-0.095960,0.032437
780.712389,0.319865,0.023599
780.745876,0.031987,0.018614
780.779363,-0.095960,0.032437
780.812849,-0.159933,0.049635
780.846335,-0.159933,0.103576
780.879821,-0.127946,0.049442
780.913307,0.031987,0.037142
780.946792,-0.191919,0.056353
780.980277,0.095960,0.032437
781.013762,0.191919,0.033310
781.047247,-0.063973,0.103361
781.080731,-0.031987,0.018614
781.114215,0.000000,0.032141
781.147699,-0.255892,0.021918
781.181183,-0.319865,0.051216
781.214666,0.031987,0.018614
781.248149,-0.479798,0.038876
781.281632,-0.255892,0.021918
781.315114,0.223906,0.103822
781.348596,0.095960,0.032437
781.382078,0.191919,0.008748
781.415560,0.000000,0.032141
781.449041,0.415825,0.114456
781.482522,0.191919,0.056353
781.516003,0.000000,0.085038
781.549484,0.031987,0.129905
781.582964,0.191919,0.064875
781.616444,0.159933,0.130102
781.649924,-0.095960,0.032437
781.683404,0.127946,0.103484
781.716883,-0.031987,0.049118
781.750362,0.031987,0.018614
781.783841,0.031987,0.066923
781.817319,-0.223906,0.081528
781.850797,-0.063973,0.037228
781.884275,0.255892,0.122242
781.917753,0.063973,0.066971
781.951230,0.063973,0.080939
781.984707,0.383838,0.117200
782.018184,0.063973,0.066971
782.051661,0.223906,0.081528
782.085137,-0.223906,0.021178
782.118613,0.159933,0.049635
782.152089,0.287879,0.065608
782.185564,0.000000,0.055670
782.219040,0.000000,0.096424
782.252515,0.063973,0.018784
782.285989,-0.031987,0.037142
782.319464,-0.255892,0.067916
782.352938,0.191919,0.008748
782.386412,-0.159933,0.067303
782.419885,0.031987,0.018614
782.453359,-0.191919,0.033310
782.486832,-0.191919,0.033310
782.520305,0.415825,0.436791
782.553777,-0.063973,0.018784
782.587249,-0.127946,0.098366
782.620721,0.223906,0.021178
782.654193,-0.159933,0.049635
782.687665,-0.255892,0.067916
782.721136,0.223906,0.021178
782.754607,0.447811,0.292355
782.788077,0.383838,0.117200
782.821548,0.000000,0.085038
782.855018,-0.127946,0.019452
782.888488,0.031987,0.018614
782.921957,0.095960,0.004374
782.955427,0.255892,0.152341
782.988896,-0.159933,0.037823
783.022365,0.447811,0.233409
783.055833,-0.095960,0.055842
783.089301,-0.127946,0.049442
783.122769,-0.191919,0.064875
783.156237,0.127946,0.049442
783.189704,0.223906,0.188607
783.223172,0.095960,0.140169
783.256638,-0.031987,0.037142
783.290105,-0.095960,0.032437
783.323571,0.319865,0.082190
783.357037,0.031987,0.018614
783.390503,-0.031987,0.049118
783.423969,-0.063973,0.103361
783.457434,0.000000,0.032141
783.490899,0.255892,0.038903
783.524364,0.159933,0.067303
783.557828,-0.159933,0.049635
783.591292,0.000000,0.032141
783.624756,0.255892,0.291875
783.658220,-0.127946,0.092967
783.691683,0.127946,0.037569
783.725146,0.191919,0.116216
783.758609,0.127946,0.019452
783.792072,0.255892,0.122242
783.825534,0.095960,0.055842
783.858996,-0.191919,0.064875
783.892458,0.287879,0.211172
783.925919,0.191919,0.033310
783.959381,0.031987,0.074241
783.992842,0.191919,0.008748
784.026302,0.000000,0.064282
784.059763,-0.031987,0.037142
784.093223,0.127946,0.133942
784.126683,0.031987,0.066923
784.160142,0.095960,0.064431
784.193601,-0.351852,0.051649
784.227060,-0.095960,0.085150
784.260519,0.000000,0.064282
784.293978,0.255892,0.021918
784.327436,0.063973,0.018784
784.360894,-0.031987,0.121693
784.394352,0.159933,0.177170
784.427809,-0.287879,0.057196
784.461266,-0.287879,0.086044
784.494723,-0.063973,0.049183
784.528180,-0.127946,0.067161
784.561636,0.095960,0.085150
784.595092,0.000000,0.085038
784.628548,0.095960,0.064431
784.662003,0.063973,0.049183
784.695458,0.063973,0.098236
784.728913,0.095960,0.140169
784.762368,-0.095960,0.032437
784.795823,0.255892,0.122242
784.829277,0.063973,0.037228
784.862731,0.031987,0.066923
784.896184,0.159933,0.130102
784.929637,0.543771,0.208120
784.963091,-0.031987,0.148461
784.996543,0.159933,0.130102
785.029996,0.127946,0.037569
785.063448,0.351852,0.130883
785.096900,0.447811,0.262570
785.130352,-0.031987,0.018614
785.163803,0.127946,0.165039
785.197254,0.063973,0.080939
785.230705,0.063973,0.049183
785.264156,-0.191919,0.033310
785.297606,0.031987,0.049118
785.331056,0.223906,0.081528
785.364506,0.063973,0.049183
785.397955,-0.031987,0.037142
785.431405,0.351852,0.214607
785.464854,0.223906,0.021178
785.498302,0.159933,0.019937
785.531751,0.575758,0.118821
785.565199,1.023569,0.595646
785.598647,0.095960,0.111426
785.632094,-0.127946,0.049442
785.665542,0.159933,0.098463
785.698989,-0.000000,0.085038
785.732436,-0.127946,0.019452
785.765882,0.095960,0.096523
785.799328,0.127946,0.049442
785.832774,-0.191919,0.056353
785.866220,0.063973,0.037228
785.899665,0.255892,0.232808
785.933111,0.287879,0.034716
785.966555,0.287879,0.195947
786.000000,0.191919,0.222853
786.033444,0.127946,0.049442
786.066888,-0.031987,0.049118
786.100332,0.095960,0.251069
786.133776,0.191919,0.033310
786.167219,0.063973,0.018784
786.200662,0.127946,0.067161
786.234104,0.127946,0.019452
786.267547,-0.095960,0.032437
786.300989,-0.031987,0.037142
786.334431,0.031987,0.018614
786.367872,0.127946,0.081097
786.401314,-0.063973,0.037228
786.434755,0.159933,0.049635
786.468196,-0.095960,0.032437
786.501636,0.000000,0.055670
786.535076,0.127946,0.049442
786.568516,0.159933,0.037823
786.601956,0.000000,0.000000
786.635395,0.191919,0.147549
786.668834,0.223906,0.021178
786.702273,0.063973,0.049183
786.735712,-0.127946,0.049442
786.769150,0.000000,0.032141
786.802588,-0.063973,0.049183
786.836026,0.255892,0.103976
786.869463,0.319865,0.104343
786.902900,0.479798,0.295390
786.936337,0.255892,0.194089
786.969774,0.223906,0.074925
787.003210,0.223906,0.074925
787.036646,0.415825,0.241981
787.070082,-0.031987,0.177026
787.103518,-0.031987,0.037142
787.136953,0.159933,0.067303
787.170388,0.127946,0.081097
787.203823,-0.351852,0.068803
787.237257,0.000000,0.032141
787.270691,0.063973,0.074284
787.304125,0.191919,0.085486
787.337559,0.223906,0.067681
787.370992,0.287879,0.086044
787.404425,0.063973,0.098236
787.437858,-0.063973,0.049183
787.471290,0.031987,0.049118
787.504723,-0.191919,0.033310
787.538155,-0.095960,0.064431
787.571586,0.095960,0.055842
787.605018,0.191919,0.064875
787.638449,0.031987,0.066923
787.671880,-0.031987,0.018614
787.705310,-0.095960,0.055842
787.738741,-0.031987,0.074241
787.772171,0.000000,0.032141
787.805600,0.703704,0.326719
787.839030,0.000000,0.064282
787.872459,-0.095960,0.032437
787.905888,0.063973,0.018784
787.939317,-0.095960,0.055842
787.972745,-0.031987,0.049118
788.006173,0.223906,0.067681
788.039601,0.127946,0.098366
788.073028,-0.095960,0.032437
788.106456,0.191919,0.033310
788.139883,-0.031987,0.049118
788.173309,0.479798,0.067901
788.206736,0.287879,0.170581
788.240162,0.159933,0.019937
788.273588,0.063973,0.080939
788.307013,-0.159933,0.049635
788.340439,0.095960,0.004374
788.373864,-0.255892,0.021918
788.407288,0.000000,0.032141
788.440713,0.127946,0.049442
788.474137,-0.191919,0.064875
788.507561,-0.031987,0.037142
788.540985,-0.191919,0.064875
788.574408,0.000000,0.085038
788.607831,0.319865,0.145664
788.641254,0.351852,0.152738
788.674677,-0.127946,0.019452
788.708099,0.191919,0.167240
788.741521,0.095960,0.115969
788.774943,-0.031987,0.037142
788.808364,1.023569,0.448183
788.841785,0.543771,0.163662
788.875206,0.319865,0.039874
788.908627,0.223906,0.103822
788.942047,0.703704,0.355490
788.975467,-0.191919,0.008748
789.008887,0.255892,0.122242
789.042306,-0.159933,0.067303
789.075726,-0.031987,0.121693
789.109145,-0.095960,0.064431
789.142563,0.223906,0.074925
789.175982,0.063973,0.037228
789.209400,0.127946,0.130028
789.242817,0.000000,0.032141
789.276235,0.127946,0.019452
789.309652,-0.095960,0.004374
789.343069,-0.063973,0.049183
789.376486,0.191919,0.033310
789.409902,0.191919,0.085486
789.443319,-0.415825,0.041673
789.476735,0.063973,0.018784
789.510150,0.351852,0.130883
789.543565,0.127946,0.037569
789.576980,-0.127946,0.049442
789.610395,0.000000,0.064282
789.643810,-0.063973,0.018784
789.677224,-0.095960,0.032437
789.710638,-0.031987,0.018614
789.744052,-0.127946,0.037569
789.777465,-0.000000,0.085038
789.810878,-0.159933,0.037823
789.844291,0.159933,0.093070
789.877703,-0.191919,0.033310
789.911116,-0.127946,0.081097
789.944528,-0.095960,0.055842
789.977939,0.000000,0.032141
790.011351,-0.063973,0.037228
790.044762,0.159933,0.049635
790.078173,0.127946,0.019452
790.111583,-0.191919,0.056353
790.144994,-0.031987,0.066923
790.178404,0.095960,0.032437
790.211813,0.159933,0.037823
790.245223,-0.159933,0.037823
790.278632,0.223906,0.050146
790.312041,0.095960,0.032437
790.345450,-0.095960,0.055842
790.378858,0.095960,0.096523
790.412266,0.063973,0.018784
790.445674,-0.063973,0.018784
790.479081,-0.127946,0.037569
790.512488,0.127946,0.037569
790.545895,-0.095960,0.055842
790.579302,0.191919,0.085486
790.612708,1.055556,0.519497
790.646115,1.279461,0.400962
790.679520,0.895623,0.055172
790.712926,1.631313,0.137690
790.746331,0.223906,0.165251
790.779736,0.095960,0.055842
790.813141,0.095960,0.167068
790.846545,0.159933,0.177170
790.879949,-0.031987,0.066923
790.913353,0.159933,0.067303
790.946757,-0.479798,0.141797
790.980160,-0.511785,0.029808
791.013563,-0.063973,0.037228
791.046966,0.191919,0.033310
791.080368,-0.191919,0.033310
791.113771,0.000000,0.032141
791.147173,0.159933,0.067303
791.180574,0.351852,0.233068
791.213976,-0.159933,0.019937
791.247377,0.351852,0.051649
791.280777,0.031987,0.066923
791.314178,-0.415825,0.052628
791.347578,-0.095960,0.085150
791.380978,-0.223906,0.050146
791.414378,0.063973,0.049183
791.447777,0.000000,0.032141
791.481176,0.415825,0.250374
791.514575,0.000000,0.032141
791.547973,-0.095960,0.064431
791.581372,0.000000,0.085038
791.614770,0.255892,0.075138
791.648167,0.000000,0.032141
791.681565,-0.127946,0.049442
791.714962,0.031987,0.112886
791.748359,-0.095960,0.055842
791.781755,-0.031987,0.049118
791.815152,0.127946,0.049442
791.848548,0.223906,0.194007
791.881943,0.000000,0.032141
791.915339,0.000000,0.032141
791.948734,0.095960,0.032437
791.982129,0.127946,0.113027
792.015523,0.287879,0.129233
792.048918,0.000000,0.085038
792.082312,0.000000,0.032141
792.115705,-0.127946,0.049442
792.149099,-0.159933,0.019937
792.182492,0.223906,0.021178
792.215885,0.000000,0.032141
792.249278,0.191919,0.008748
792.282670,-0.127946,0.019452
792.316062,0.319865,0.134606
792.349454,0.383838,0.112707
792.382845,-0.031987,0.018614
792.416236,0.000000,0.032141
792.449627,-0.063973,0.018784
792.483018,0.031987,0.133823
792.516408,0.319865,0.159218
792.549798,1.215488,0.086868
792.583188,1.151515,0.290459
792.616578,0.671717,0.172809
792.649967,0.127946,0.165039
792.683356,0.255892,0.206968
792.716745,-0.255892,0.050463
792.750133,-0.415825,0.123152
792.783521,-0.255892,0.075138
792.816909,-0.223906,0.067681
792.850296,0.223906,0.021178
792.883684,-0.127946,0.019452
792.917071,-0.095960,0.004374
792.950457,0.063973,0.066971
792.983844,-0.319865,0.051216
793.017230,0.000000,0.032141
793.050616,-0.031987,0.037142
793.084001,-0.255892,0.050463
793.117386,0.031987,0.066923
793.150771,0.255892,0.038903
793.184156,-0.159933,0.067303
793.217541,0.031987,0.080900
793.250925,0.095960,0.032437
793.284309,0.191919,0.111684
793.317692,-0.031987,0.049118
793.351075,0.191919,0.128862
793.384458,0.255892,0.113477
793.417841,-0.031987,0.037142
793.451223,0.351852,0.214607
793.484606,0.287879,0.057196
793.517988,0.000000,0.000000
793.551369,0.063973,0.112914
793.584750,-0.031987,0.049118
793.618131,-0.095960,0.032437
793.651512,-0.095960,0.032437
793.684893,-0.063973,0.037228
793.718273,0.127946,0.098366
793.751653,0.351852,0.130883
793.785032,-0.127946,0.049442
793.818411,0.031987,0.049118
793.851790,0.031987,0.018614
793.885169,-0.159933,0.019937
793.918548,0.287879,0.129233
793.951926,-0.031987,0.018614
793.985304,0.095960,0.096523
794.018681,-0.031987,0.018614
794.052059,0.095960,0.055842
794.085436,0.031987,0.049118
794.118812,-0.127946,0.067161
794.152189,0.127946,0.037569
794.185565,-0.063973,0.049183
794.218941,-0.159933,0.158716
794.252317,-0.063973,0.037228
794.285692,0.031987,0.018614
794.319067,0.351852,0.051649
794.352442,0.671717,0.197890
794.385816,0.479798,0.211896
794.419190,0.927609,0.136605
794.452564,2.202020,0.871091
794.485938,1.823232,0.357455
794.519311,0.543771,0.163662
794.552684,0.223906,0.158877
794.586057,-0.063973,0.037228
794.619429,0.159933,0.019937
794.652802,-0.543771,0.044629
794.686173,0.095960,0.055842
794.719545,0.223906,0.050146
794.752916,-0.031987,0.037142
794.786287,-0.191919,0.033310
794.819658,0.223906,0.050146
794.853029,-0.095960,0.085150
794.886399,-0.127946,0.019452
794.919769,0.095960,0.085150
794.953138,0.607744,0.190357
794.986508,-0.031987,0.018614
795.019877,0.191919,0.033310
795.053245,0.000000,0.055670
795.086614,0.000000,0.000000
795.119982,0.127946,0.074456
795.153350,0.415825,0.083078
795.186718,0.127946,0.103484
795.220085,-0.191919,0.033310
795.253452,-0.351852,0.075940
795.286819,-0.127946,0.019452
795.320185,0.223906,0.021178
795.353551,-0.639731,0.034563
795.386917,0.000000,0.055670
795.420283,-0.159933,0.019937
795.453648,-0.159933,0.081215
795.487013,0.063973,0.037228
795.520378,0.319865,0.039874
795.553742,0.031987,0.066923
795.587107,0.063973,0.037228
795.620471,-0.031987,0.018614
795.653834,-0.095960,0.032437
795.687197,-0.191919,0.056353
795.720560,0.255892,0.038903
795.753923,-0.063973,0.018784
795.787286,-0.095960,0.032437
795.820648,0.319865,0.082190
795.854010,0.095960,0.085150
795.887371,0.159933,0.121903
795.920733,0.095960,0.004374
795.954094,0.479798,0.251982
795.987454,0.383838,0.058355
796.020815,0.351852,0.104557
796.054175,-0.031987,0.049118
796.087535,-0.159933,0.019937
796.120894,0.031987,0.080900
796.154254,0.191919,0.056353
796.187613,-0.063973,0.049183
796.220971,0.000000,0.032141
796.254330,0.767677,0.257501
796.287688,1.663300,0.413982
796.321046,3.710438,1.059208
796.354403,4.542088,0.246511
796.387761,3.710438,0.392361
796.421118,1.055556,0.373780
796.454474,1.215488,0.144830
796.487831,0.127946,0.067161
796.521187,-0.063973,0.018784
796.554543,0.095960,0.032437
796.587898,0.000000,0.032141
796.621254,-0.159933,0.067303
796.654609,-0.063973,0.037228
796.687963,-0.095960,0.085150
796.721318,0.255892,0.050463
796.754672,0.127946,0.049442
796.788026,0.575758,0.244076
796.821379,0.159933,0.103576
796.854732,-0.159933,0.067303
796.888085,0.095960,0.064431
796.921438,0.255892,0.067916
796.954790,0.063973,0.092830
796.988142,-0.447811,0.053170
797.021494,0.031987,0.049118
797.054846,0.063973,0.206660
797.088197,-0.063973,0.049183
797.121548,0.063973,0.204145
797.154899,0.095960,0.032437
797.188249,-0.063973,0.066971
797.221599,0.095960,0.055842
797.254949,0.255892,0.103976
797.288298,0.799663,0.327177
797.321648,0.159933,0.067303
797.354996,0.000000,0.000000
797.388345,0.415825,0.135150
797.421693,-0.031987,0.151900
797.455041,-0.639731,0.057103
797.488389,0.383838,0.196289
797.521737,0.479798,0.196727
797.555084,0.479798,0.223752
797.588431,-0.063973,0.018784
797.621777,0.127946,0.019452
797.655124,0.447811,0.183899
797.688470,0.479798,0.307387
797.721815,0.031987,0.151900
797.755161,0.127946,0.067161
797.788506,0.031987,0.018614
797.821851,-0.319865,0.039874
797.855196,0.031987,0.018614
797.888540,0.031987,0.037142
797.921884,0.095960,0.170132
797.955228,0.000000,0.167011
797.988571,0.127946,0.133942
798.021914,0.255892,0.103976
798.055257,0.063973,0.098236
798.088599,0.479798,0.098873
798.121942,0.799663,0.409872
798.155284,0.863636,0.277422
798.188625,1.503367,0.296116
798.221967,2.942761,0.656931
798.255308,5.789562,0.752916
798.288649,2.878788,0.707594
798.321989,1.503367,0.492588
798.355329,0.255892,0.165348
798.388669,0.287879,0.097312
798.422009,0.095960,0.085150
798.455348,0.223906,0.103822
798.488687,0.255892,0.021918
798.522026,0.223906,0.021178
798.555365,0.223906,0.298817
798.588703,-0.671717,0.044390
798.622041,0.319865,0.099270
798.655378,0.511785,0.242363
798.688716,-0.159933,0.037823
798.722053,0.351852,0.159358
798.755389,0.223906,0.134203
798.788726,0.063973,0.121720
798.822062,0.127946,0.037569
798.855398,-0.031987,0.037142
798.888733,0.159933,0.067303
798.922069,-0.063973,0.066971
798.955404,0.031987,0.049118
798.988738,0.000000,0.032141
799.022073,0.127946,0.049442
799.055407,-0.127946,0.037569
799.088741,0.447811,0.178193
799.122074,-0.063973,0.037228
799.155408,-0.063973,0.018784
799.188741,0.191919,0.056353
799.222073,0.000000,0.115887
799.255406,0.000000,0.032141
799.288738,-0.127946,0.049442
799.322069,0.319865,0.082190
799.355401,0.287879,0.140713
799.388732,0.223906,0.328461
799.422063,0.063973,0.182786
799.455394,-0.063973,0.066971
799.488724,0.159933,0.148633
799.522054,0.191919,0.085486
799.555384,0.063973,0.177044
799.588713,0.799663,0.235355
799.622042,0.000000,0.085038
799.655371,0.063973,0.049183
799.688700,0.127946,0.019452
799.722028,0.031987,0.018614
799.755356,0.031987,0.049118
799.788684,0.447811,0.083423
799.822011,0.031987,0.018614
799.855338,-0.223906,0.038491
799.888665,-0.063973,0.018784
799.921992,0.383838,0.201483
799.955318,1.087542,0.237741
799.988644,0.191919,0.064875
800.021969,1.215488,0.275187
800.055295,1.855219,0.323423
800.088620,4.638047,0.295620
800.121945,7.836700,0.896412
800.155269,10.510101,0.815735
800.188593,8.444444,1.568810
800.221917,2.271044,0.221997
800.255241,0.767677,0.245171
800.288564,0.543771,0.215437
800.321887,0.479798,0.117932
800.355210,0.095960,0.032437
800.388532,-0.031987,0.018614
800.421854,0.095960,0.140169
800.455176,0.127946,0.037569
800.488498,-0.095960,0.055842
800.521819,0.767677,0.337384
800.555140,0.191919,0.170300
800.588461,0.319865,0.113814
800.621781,0.223906,0.050146
800.655101,0.703704,0.251707
800.688421,0.415825,0.105044
800.721740,0.000000,0.032141
800.755060,0.095960,0.096523
800.788379,-0.287879,0.034716
800.821697,0.287879,0.116627
800.855015,-0.031987,0.066923
800.888334,-0.031987,0.018614
800.921651,-0.223906,0.021178
800.954969,0.191919,0.008748
800.988286,0.415825,0.052628
801.021603,0.031987,0.080900
801.054919,-0.031987,0.018614
801.088235,-0.223906,0.050146
801.121551,0.000000,0.128565
801.154867,-0.319865,0.082190
801.188183,0.255892,0.075138
801.221498,-0.287879,0.034716
801.254812,0.671717,0.181555
801.288127,0.639731,0.161208
801.321441,0.863636,0.282952
801.354755,-0.095960,0.032437
801.388069,0.191919,0.056353
801.421382,0.319865,0.051216
801.454695,0.671717,0.119863
801.488008,0.191919,0.140373
801.521320,-0.127946,0.019452
801.554632,-0.031987,0.121693
801.587944,0.255892,0.122242
801.621256,-0.095960,0.085150
801.654567,0.095960,0.055842
801.687878,0.319865,0.183343
801.721189,0.159933,0.074584
801.754499,0.000000,0.032141
801.787809,-0.159933,0.067303
801.821119,-0.351852,0.051649
801.854428,-0.351852,0.040430
801.887737,0.255892,0.291875
801.921046,1.055556,0.206408
801.954355,0.575758,0.258465
801.987663,3.550505,0.550499
802.020971,7.037037,1.607036
802.054279,10.683502,0.658599
802.087586,13.707071,0.624682
802.120894,8.128788,1.209342
802.154200,2.398990,0.738251
802.187507,1.151515,0.330393
802.220813,0.447811,0.166194
802.254119,0.415825,0.146167
802.287425,0.095960,0.032437
802.320730,0.127946,0.133942
802.354035,0.159933,0.093070
802.387340,0.127946,0.130028
802.420644,-0.319865,0.068477
802.453949,-0.383838,0.036594
802.487252,-0.191919,0.064875
802.520556,0.063973,0.018784
802.553859,0.000000,0.032141
802.587162,0.223906,0.021178
802.620465,0.575758,0.172088
802.653767,0.351852,0.207261
802.687069,0.415825,0.209981
802.720371,0.319865,0.113814
802.753673,0.127946,0.188421
802.786974,0.479798,0.263995
802.820275,0.063973,0.018784
802.853576,0.191919,0.064875
802.886876,0.383838,0.211489
802.920176,0.191919,0.140373
802.953476,-0.191919,0.096820
802.986775,0.223906,0.145292
803.020074,0.319865,0.188894
803.053373,0.031987,0.066923
803.086672,0.287879,0.167525
803.119970,-0.063973,0.080939
803.153268,-0.095960,0.064431
803.186565,-0.095960,0.055842
803.219863,-0.031987,0.049118
803.253160,-0.159933,0.019937
803.286457,0.063973,0.049183
803.319753,0.287879,0.225371
803.353049,0.287879,0.251374
803.386345,0.127946,0.103484
803.419641,-0.031987,0.049118
803.452936,-0.223906,0.021178
803.486231,0.351852,0.024527
803.519525,0.095960,0.140169
803.552820,0.255892,0.130420
803.586114,-0.191919,0.033310
803.619408,0.223906,0.021178
803.652701,0.607744,0.298197
803.685994,0.415825,0.135150
803.719287,0.159933,0.098463
803.752580,0.351852,0.165714
803.785872,0.319865,0.039874
803.819164,0.511785,0.135833
803.852456,1.087542,0.123281
803.885747,1.535354,0.119143
803.919038,4.702020,0.491102
803.952329,9.372054,0.535879
803.985620,13.434343,0.615706
804.018910,25.446970,1.881119
804.052200,10.715488,0.553211
804.085489,3.134680,0.193101
804.118779,1.247475,0.203608
804.152068,0.063973,0.037228
804.185357,0.319865,0.145664
804.218645,0.927609,0.292933
804.251933,0.511785,0.131975
804.285221,1.119529,0.200346
804.318508,0.351852,0.051649
804.351796,-0.127946,0.049442
804.385083,-0.127946,0.098366
804.418369,0.063973,0.177044
804.451656,-0.095960,0.032437
804.484942,0.191919,0.056353
804.518227,0.671717,0.169794
804.551513,0.735690,0.087562
804.584798,0.255892,0.075138
804.618083,0.159933,0.098463
804.651367,0.319865,0.159218
804.684652,-0.159933,0.103576
804.717936,-0.159933,0.019937
804.751219,0.991582,0.293368
804.784503,0.159933,0.067303
804.817786,0.063973,0.112914
804.851068,0.063973,0.018784
804.884351,-0.127946,0.214086
804.917633,-0.063973,0.112914
804.950915,-0.319865,0.039874
804.984196,0.607744,0.326318
805.017478,0.255892,0.067916
805.050759,0.223906,0.122112
805.084039,0.319865,0.039874
805.117320,0.671717,0.150438
805.150600,0.095960,0.115969
805.183879,0.863636,0.134456
805.217159,0.191919,0.225159
805.250438,0.063973,0.133846
805.283717,0.383838,0.066621
805.316995,0.095960,0.140169
805.350274,0.543771,0.184436
805.383552,0.959596,0.205432
805.416829,0.287879,0.140713
805.450107,0.031987,0.037142
805.483384,0.319865,0.075645
805.516660,0.991582,0.312135
805.549937,-0.351852,0.040430
805.583213,0.639731,0.133130
805.616489,0.319865,0.099270
805.649764,0.895623,0.240408
805.683040,0.063973,0.121720
805.716315,0.799663,0.230924
805.749589,0.255892,0.262035
805.782864,0.863636,0.228406
805.816138,3.486532,0.381358
805.849411,7.989899,0.381606
805.882685,22.550505,1.246352
805.915958,34.977273,1.623251
805.949231,57.361111,1.908371
805.982504,20.636364,1.621460
806.015776,7.612795,0.773318
806.049048,2.718855,0.589333
806.082319,1.471380,0.455326
806.115591,0.895623,0.453347
806.148862,0.671717,0.318031
806.182133,0.575758,0.339644
806.215403,1.151515,0.262432
806.248673,-0.063973,0.164962
806.281943,0.767677,0.121054
806.315213,0.095960,0.085150
806.348482,-0.127946,0.092967
806.381751,0.319865,0.051216
806.415019,0.095960,0.032437
806.448288,-0.127946,0.113027
806.481556,0.223906,0.158877
806.514823,0.799663,0.230924
806.548091,0.447811,0.135362
806.581358,0.000000,0.032141
806.614625,0.191919,0.064875
806.647891,1.343434,0.285007
806.681158,0.383838,0.086819
806.714424,0.639731,0.263394
806.747689,0.287879,0.306888
806.780955,-0.031987,0.018614
806.814220,0.383838,0.058355
806.847484,0.991582,0.141241
806.880749,0.031987,0.080900
806.914013,0.127946,0.098366
806.947277,0.287879,0.365290
806.980540,0.159933,0.185711
807.013803,-0.255892,0.130420
807.047066,0.575758,0.169060
807.080329,0.127946,0.019452
807.113591,-0.127946,0.074456
807.146853,0.223906,0.050146
807.180115,0.735690,0.098657
807.213376,-0.223906,0.162096
807.246637,0.735690,0.290023
807.279898,0.223906,0.038491
807.313159,0.095960,0.111426
807.346419,0.159933,0.152068
807.379679,0.767677,0.323311
807.412938,0.095960,0.085150
807.446198,-0.191919,0.033310
807.479457,0.703704,0.382101
807.512715,0.319865,0.068477
807.545974,0.383838,0.112707
807.579232,0.479798,0.226049
807.612490,0.287879,0.255450
807.645747,0.671717,0.212976
807.679004,0.767677,0.151389
807.712261,1.087542,0.390634
807.745518,1.919192,0.130191
807.778774,12.122896,1.198264
807.812030,26.474747,2.354188
807.845285,45.823232,2.379845
807.878541,103.585859,2.491714
807.911796,80.194444,4.206900
807.945051,20.621212,1.828522
807.978305,5.426768,0.954067
808.011559,3.166667,0.220739
808.044813,2.558923,0.398217
808.078066,1.311448,0.160037
808.111320,0.575758,0.264393
808.144573,0.607744,0.409187
808.177825,0.383838,0.275171
808.211078,1.023569,0.541119
808.244330,-0.319865,0.068477
808.277581,-0.031987,0.164942
808.310833,-0.383838,0.086819
808.344084,0.383838,0.141188
808.377335,0.287879,0.358150
808.410585,0.063973,0.066971
808.443835,-0.127946,0.113027
808.477085,0.000000,0.111340
808.510335,0.287879,0.097312
808.543584,1.375421,0.346377
808.576833,0.223906,0.152236
808.610082,0.191919,0.064875
808.643330,0.127946,0.098366
808.676578,0.447811,0.053170
808.709826,-0.159933,0.019937
808.743073,0.735690,0.216618
808.776320,-0.127946,0.148568
808.809567,0.191919,0.008748
808.842814,0.575758,0.142537
808.876060,0.767677,0.164471
808.909306,0.607744,0.220527
808.942552,0.287879,0.225371
808.975797,-0.255892,0.152341
809.009042,0.511785,0.146798
809.042287,0.607744,0.179174
809.075531,0.895623,0.181666
809.108775,0.479798,0.087805
809.142019,0.895623,0.262982
809.175262,0.319865,0.159218
809.208506,0.895623,0.283766
809.241748,0.991582,0.415742
809.274991,0.383838,0.170973
809.308233,0.831650,0.260570
809.341475,-0.223906,0.162096
809.374717,-0.127946,0.145050
809.407958,0.831650,0.360389
809.441199,0.639731,0.102431
809.474440,-0.383838,0.170973
809.507680,-1.247475,0.232062
809.540921,-1.567340,0.176846
809.574160,-1.023569,0.113365
809.607400,0.735690,0.148761
809.640639,2.303030,0.572860
809.673878,2.526936,0.190625
809.707117,4.510101,0.327631
809.740355,18.200337,1.121037
809.773593,34.449495,1.599873
809.806831,54.858586,0.791585
809.840068,119.919192,3.213259
809.873305,54.156566,1.459073
809.906542,18.040404,1.009008
809.939778,6.749158,0.968481
809.973015,4.739899,0.762563
810.006250,3.006734,0.660668
810.039486,1.183502,0.193249
810.072721,1.983165,0.369614
810.105956,2.526936,0.751153
810.139191,0.991582,0.223400
810.172425,1.503367,0.376037
810.205659,0.639731,0.179406
810.238893,0.895623,0.299701
810.272126,0.927609,0.261243
810.305359,0.223906,0.081528
810.338592,1.183502,0.413049
810.371825,0.575758,0.169060
810.405057,0.735690,0.087562
810.438289,0.415825,0.178032
810.471520,0.287879,0.086044
810.504751,0.671717,0.090381
810.537982,0.639731,0.331158
810.571213,0.287879,0.294871
810.604443,0.383838,0.141188
810.637673,0.767677,0.308598
810.670903,0.063973,0.228048
810.704133,0.159933,0.098463
810.737362,-0.127946,0.165039
810.770591,0.479798,0.339334
810.803819,-0.095960,0.225031
810.837047,0.383838,0.112707
810.870275,0.703704,0.251707
810.903503,0.415825,0.153071
810.936730,0.767677,0.133241
810.969957,-0.127946,0.074456
811.003184,0.991582,0.190992
811.036410,0.319865,0.122555
811.069636,0.031987,0.209129
811.102862,0.319865,0.290232
811.136087,0.831650,0.156552
811.169312,0.095960,0.085150
811.202537,0.607744,0.289407
811.235762,0.127946,0.209205
811.268986,0.671717,0.224776
811.302210,0.031987,0.080900
811.335433,1.311448,0.525970
811.368656,0.959596,0.146769
811.401879,0.543771,0.344568
811.435102,2.622896,0.483369
811.468324,4.254209,0.312829
811.501546,4.030303,0.607007
811.534768,3.998316,0.214369
811.567990,3.198653,0.452164
811.601211,2.175084,0.231434
811.634432,2.974747,0.335250
811.667652,6.813131,0.366962
811.700872,17.452020,0.592174
811.734092,32.658249,1.907270
811.767312,61.398990,1.567303
811.800531,128.760101,4.578191
811.833750,84.204545,2.519424
811.866969,24.053872,2.237897
811.900187,6.749158,0.730066
811.933405,3.966330,0.291000
811.966623,1.983165,0.312023
811.999840,0.703704,0.179902
812.033057,0.703704,0.179902
812.066274,0.735690,0.234921
812.099490,1.663300,0.420175
812.132707,0.991582,0.386110
812.165923,0.063973,0.133846
812.199138,1.535354,0.069982
812.232353,0.000000,0.224989
812.265568,0.767677,0.282377
812.298783,1.279461,0.431968
812.331997,0.287879,0.310236
812.365211,0.095960,0.140169
812.398425,0.767677,0.566074
812.431638,0.223906,0.081528
812.464851,0.319865,0.207153
812.498064,0.831650,0.301039
812.531277,0.255892,0.249928
812.564489,0.671717,0.090381
812.597701,-0.191919,0.064875
812.630912,-0.639731,0.195920
812.664123,0.895623,0.276389
