#{
#    "background_file": "Backgrounds\\\\bg_787.999nm_13bin_219st_244en_10.0s_110g_4x_5_seq.txt",
#    "ccd_image_settings": [
#        1,
#        13,
#        1,
#        1600,
#        219,
#        244
#    ],
#    "ccd_temperature": "-87",
#    "cdRatios": {
#        "mean": 0.950057617181552,
#        "std": 0.006597922122957533
#    },
#    "center_lambda": 786.0,
#    "comments": "",
#    "dark_region": 4.291289488116145,
#    "date": "10/22/20 15:34:57PM",
#    "eff_field": 1.5,
#    "exposure": 10.0,
#    "fel_lambda": "15.0",
#    "fel_pol": "H",
#    "fel_pulses": 42,
#    "fel_pyro_cal": "0.012",
#    "fel_reprate": "1.07",
#    "fel_transmission": "1.0",
#    "fel_transmission_fits": {
#        "A": 1.0,
#        "C": 0.0,
#        "Mu": 0.0
#    },
#    "fieldInt": {
#        "mean": 5122.773380681818,
#        "std": 363.4892989457148
#    },
#    "fieldStrength": {
#        "mean": 32.81029734848485,
#        "std": 1.1905190148455524
#    },
#    "fpTime": {
#        "mean": 1.1128676029790938,
#        "std": 0.052927083265881
#    },
#    "gain": 110,
#    "grating": 3,
#    "images_in_sequence": [
#        "hsg_820nm_c123_a45_HAna321.txt",
#        "hsg_820nm_c123_a45_HAna322.txt",
#        "hsg_820nm_c123_a45_HAna323.txt",
#        "hsg_820nm_c123_a45_HAna324.txt"
#    ],
#    "nir_lambda": "819.98",
#    "nir_pola": "45",
#    "nir_polg": "0",
#    "nir_power": "100.0",
#    "pulseEnergies": {
#        "mean": 1.557774621212121,
#        "std": 0.11391611895715975
#    },
#    "pyroVoltage": {
#        "mean": 0.13670007588282695,
#        "std": 0.01033916205143718
#    },
#    "rotatorAngle": 292.49999633788167,
#    "sample_Temp": "55",
#    "sample_name": "L001218.C1",
#    "series": "820_Fan",
#    "slits": "60",
#    "spec_step": "",
#    "window_trans": 0.92,
#    "y_max": 2,
#    "y_min": 1
#}
#
#
#
#
#
#
#
#
#
#
#
#
#
#
#
#
#
#
#
#
#
#
#
#
#
#
Wavelength,Signal,error
nm,arb. u.,arb.u.
Wavelength,820_Fan,error
759.194366,0.309091,0.162718
759.228015,-0.645455,0.047456
759.261663,-0.213636,0.017457
759.295311,-0.068182,0.080128
759.328959,-0.077273,0.085673
759.362607,-0.050000,0.043301
759.396254,0.220455,0.083714
759.429901,0.227273,0.202285
759.463548,-0.102273,0.077631
759.497194,0.065909,0.110473
759.530841,-0.047727,0.071681
759.564487,0.075000,0.175644
759.598133,-0.131818,0.156323
759.631779,-0.084091,0.147548
759.665424,-0.127273,0.166763
759.699069,0.070455,0.020423
759.732714,-0.029545,0.070519
759.766359,0.281818,0.134917
759.800003,0.195455,0.174675
759.833648,-0.050000,0.122158
759.867292,0.086364,0.133473
759.900935,-0.102273,0.077631
759.934579,0.340909,0.378086
759.968222,0.025000,0.021651
760.001865,-0.009091,0.159350
760.035508,-0.022727,0.073399
760.069151,-0.272727,0.254221
760.102793,-0.052273,0.054391
760.136435,0.154545,0.169863
760.170077,0.247727,0.166929
760.203718,0.336364,0.107517
760.237360,0.095455,0.047835
760.271001,-0.038636,0.156418
760.304642,-0.004545,0.107589
760.338283,0.000000,0.077673
760.371923,0.120455,0.128700
760.405563,-0.031818,0.208138
760.439203,0.104545,0.097727
760.472843,0.065909,0.101506
760.506482,0.068182,0.051676
760.540122,0.025000,0.098824
760.573761,0.161364,0.058421
760.607399,-0.097727,0.076289
760.641038,-0.093182,0.085060
760.674676,-0.261364,0.037119
760.708314,0.013636,0.201249
760.741952,0.609091,0.425358
760.775589,-0.056818,0.136378
760.809227,-0.245455,0.083691
760.842864,0.097727,0.035410
760.876501,0.070455,0.020423
760.910137,-0.006818,0.134509
760.943774,0.050000,0.043301
760.977410,0.165909,0.067142
761.011046,-0.002273,0.033767
761.044681,0.347727,0.305635
761.078317,-0.284091,0.073671
761.111952,0.056818,0.186817
761.145587,-0.115909,0.049311
761.179221,-0.068182,0.051676
761.212856,-0.140909,0.076162
761.246490,-0.168182,0.050769
761.280124,0.250000,0.129904
761.313758,0.159091,0.165066
761.347391,-0.263636,0.082384
761.381024,-0.265909,0.045611
761.414657,-0.615909,0.040703
761.448290,0.179545,0.186097
761.481923,0.029545,0.111682
761.515555,-0.363636,0.070050
761.549187,-0.086364,0.169360
761.582819,0.197727,0.182849
761.616450,-0.265909,0.067678
761.650082,0.170455,0.117012
761.683713,0.265909,0.045611
761.717344,-0.184091,0.086982
761.750974,-0.140909,0.067458
761.784605,-0.552273,0.082658
761.818235,-0.120455,0.068286
761.851865,0.215909,0.040449
761.885494,0.068182,0.137176
761.919124,0.150000,0.161779
761.952753,-0.093182,0.032201
761.986382,0.009091,0.118792
762.020010,-0.645455,0.047456
762.053639,-0.120455,0.157570
762.087267,-0.265909,0.055798
762.120895,0.068182,0.068823
762.154523,0.025000,0.054486
762.188150,0.072727,0.081502
762.221777,-0.175000,0.156517
762.255404,0.065909,0.113880
762.289031,-0.027273,0.060388
762.322658,0.075000,0.041458
762.356284,0.179545,0.141216
762.389910,0.163636,0.057765
762.423536,0.120455,0.111033
762.457161,-0.018182,0.070711
762.490786,0.172727,0.155910
762.524411,-0.261364,0.066910
762.558036,0.000000,0.124025
762.591661,0.200000,0.126622
762.625285,-0.290909,0.054545
762.658909,-0.027273,0.060388
762.692533,0.265909,0.322749
762.726157,0.456818,0.184424
762.759780,-0.020455,0.050858
762.793403,0.272727,0.162750
762.827026,0.329545,0.091384
762.860649,0.070455,0.067449
762.894271,-0.211364,0.069188
762.927893,-0.025000,0.038753
762.961515,0.270455,0.091497
762.995137,0.056818,0.164215
763.028758,-0.002273,0.092953
763.062379,-0.238636,0.055705
763.096000,-0.065909,0.068588
763.129621,-0.002273,0.033767
763.163241,-0.065909,0.136643
763.196862,0.700000,0.388816
763.230481,-0.095455,0.032221
763.264101,-0.045455,0.052911
763.297721,0.347727,0.167269
763.331340,0.547727,0.297725
763.364959,0.254545,0.233704
763.398578,0.038636,0.224905
763.432196,0.420455,0.215235
763.465814,-0.111364,0.295111
763.499432,0.190909,0.124108
763.533050,-0.045455,0.076803
763.566668,-0.384091,0.095691
763.600285,0.072727,0.041161
763.633902,-0.579545,0.088512
763.667519,-0.190909,0.035646
763.701135,0.111364,0.104663
763.734752,0.181818,0.132522
763.768368,0.006818,0.090532
763.801984,-0.054545,0.120776
763.835599,-0.238636,0.024557
763.869215,-0.452273,0.127855
763.902830,-0.261364,0.037119
763.936444,0.104545,0.116974
763.970059,0.006818,0.075472
764.003673,0.045455,0.042030
764.037288,-0.140909,0.038098
764.070901,-0.240909,0.127496
764.104515,-0.025000,0.110753
764.138128,0.072727,0.050103
764.171742,-0.440909,0.134476
764.205354,0.079545,0.100380
764.238967,-0.215909,0.068813
764.272580,0.304545,0.054687
764.306192,-0.004545,0.047727
764.339804,-0.188636,0.030724
764.373415,-0.022727,0.040465
764.407027,-0.311364,0.069411
764.440638,0.375000,0.200345
764.474249,-0.406818,0.090987
764.507860,-0.218182,0.063229
764.541470,-0.172727,0.079837
764.575080,0.065909,0.273774
764.608690,-0.120455,0.039545
764.642300,0.004545,0.113249
764.675909,0.018182,0.194155
764.709519,0.313636,0.058077
764.743128,0.140909,0.038098
764.776736,0.343182,0.220826
764.810345,0.250000,0.147167
764.843953,0.090909,0.057586
764.877561,-0.027273,0.039756
764.911169,0.018182,0.131897
764.944776,0.052273,0.054391
764.978384,0.456818,0.319839
765.011991,-0.163636,0.067726
765.045598,0.129545,0.122322
765.079204,-0.047727,0.051363
765.112810,0.020455,0.134471
765.146416,0.370455,0.232694
765.180022,0.450000,0.162925
765.213628,-0.120455,0.068286
765.247233,-0.072727,0.041161
765.280838,0.238636,0.051664
765.314443,0.065909,0.078557
765.348048,-0.238636,0.024557
765.381652,-0.643182,0.036840
765.415256,0.306818,0.072469
765.448860,0.052273,0.141508
765.482463,-0.477273,0.049114
765.516067,0.302273,0.173603
765.549670,-0.193182,0.058685
765.583273,-0.031818,0.140450
765.616875,0.113636,0.082478
765.650478,-0.052273,0.107967
765.684080,-0.120455,0.068286
765.717682,-0.020455,0.075404
765.751283,-0.456818,0.049832
765.784885,0.086364,0.249597
765.818486,-0.077273,0.063433
765.852087,0.022727,0.019682
765.885687,-0.290909,0.094912
765.919288,0.206818,0.125531
765.952888,0.006818,0.090532
765.986488,0.090909,0.055670
766.020087,-0.193182,0.037119
766.053687,-0.211364,0.061269
766.087286,0.022727,0.019682
766.120885,0.095455,0.073399
766.154484,0.077273,0.250320
766.188082,-0.250000,0.217102
766.221680,0.115909,0.074369
766.255278,-0.063636,0.134917
766.288876,-0.095455,0.077706
766.322473,0.254545,0.273559
766.356070,-0.052273,0.054391
766.389667,0.150000,0.133821
766.423264,0.093182,0.055705
766.456860,0.050000,0.025000
766.490457,0.334091,0.133042
766.524053,0.047727,0.051363
766.557648,0.036364,0.152527
766.591244,0.268182,0.088985
766.624839,-0.045455,0.052911
766.658434,0.284091,0.102115
766.692029,-0.020455,0.090475
766.725623,0.302273,0.178706
766.759217,0.186364,0.105651
766.792811,-0.090909,0.084060
766.826405,0.004545,0.047727
766.859999,-0.050000,0.053926
766.893592,-0.459091,0.092403
766.927185,0.318182,0.098857
766.960777,0.065909,0.068588
766.994370,-0.256818,0.269649
767.027962,-0.243182,0.089384
767.061554,-0.240909,0.046075
767.095146,-0.095455,0.002273
767.128737,0.247727,0.204933
767.162329,0.172727,0.124731
767.195920,-0.143182,0.051464
767.229510,0.043182,0.094551
767.263101,-0.161364,0.066679
767.296691,-0.236364,0.073011
767.330281,-0.075000,0.052458
767.363871,0.052273,0.107967
767.397460,-0.120455,0.039545
767.431050,0.022727,0.019682
767.464639,-0.359091,0.063188
767.498227,-0.002273,0.075540
767.531816,0.265909,0.236874
767.565404,0.097727,0.086326
767.598992,0.047727,0.113880
767.632580,-0.025000,0.021651
767.666168,-0.336364,0.057406
767.699755,0.000000,0.032141
767.733342,0.193182,0.037119
767.766929,0.184091,0.141289
767.800515,-0.165909,0.067142
767.834101,-0.072727,0.021076
767.867687,-0.070455,0.020423
767.901273,-0.075000,0.116259
767.934859,0.020455,0.090475
767.968444,0.070455,0.020423
768.002029,0.072727,0.050103
768.035614,-0.113636,0.191840
768.069198,0.093182,0.032201
768.102783,0.047727,0.071681
768.136367,0.397727,0.122743
768.169950,-0.095455,0.143362
768.203534,-0.093182,0.059472
768.237117,-0.145455,0.055017
768.270700,0.086364,0.172772
768.304283,-0.315909,0.091327
768.337866,-0.075000,0.052458
768.371448,0.070455,0.067449
768.405030,-0.215909,0.064313
768.438612,-0.102273,0.089960
768.472193,-0.022727,0.107637
768.505775,0.022727,0.040465
768.539356,0.120455,0.023038
768.572936,0.229545,0.280152
768.606517,0.077273,0.105308
768.640097,-0.190909,0.047997
768.673677,-0.029545,0.080249
768.707257,-0.054545,0.087019
768.740836,-0.304545,0.119334
768.774416,0.375000,0.272033
768.807995,-0.050000,0.068973
768.841574,-0.215909,0.130889
768.875152,0.293182,0.119242
768.908730,0.188636,0.084512
768.942308,-0.163636,0.057765
768.975886,0.072727,0.061322
769.009464,0.002273,0.099190
769.043041,0.025000,0.038753
769.076618,-0.052273,0.073881
769.110195,0.045455,0.076803
769.143771,-0.063636,0.134725
769.177348,-0.143182,0.051464
769.210924,-0.168182,0.074239
769.244499,0.093182,0.102971
769.278075,-0.447727,0.082658
769.311650,0.143182,0.096337
769.345225,0.272727,0.190720
769.378800,-0.027273,0.137945
769.412375,0.418182,0.316407
769.445949,-0.029545,0.070519
769.479523,0.072727,0.021076
769.513097,0.284091,0.115143
769.546670,-0.318182,0.092319
769.580243,0.179545,0.211507
769.613816,-0.068182,0.037689
769.647389,-0.118182,0.039886
769.680962,-0.077273,0.072621
769.714534,0.213636,0.116708
769.748106,0.143182,0.051464
769.781678,0.002273,0.075540
769.815249,0.152273,0.159200
769.848820,-0.140909,0.040846
769.882391,0.122727,0.147482
769.915962,0.272727,0.190720
769.949533,-0.093182,0.059472
769.983103,0.047727,0.023918
770.016673,0.088636,0.073320
770.050243,-0.450000,0.029720
770.083812,0.004545,0.085311
770.117381,0.038636,0.118460
770.150950,0.047727,0.096283
770.184519,0.122727,0.071184
770.218088,0.025000,0.094878
770.251656,-0.354545,0.047456
770.285224,0.052273,0.095691
770.318791,-0.165909,0.128097
770.352359,-0.263636,0.117919
770.385926,-0.356818,0.018003
770.419493,0.000000,0.047781
770.453060,-0.077273,0.105308
770.486626,0.047727,0.023918
770.520192,-0.054545,0.106406
770.553758,0.175000,0.102317
770.587324,0.115909,0.049311
770.620890,0.363636,0.109422
770.654455,0.286364,0.133512
770.688020,-0.163636,0.035646
770.721584,-0.029545,0.070519
770.755149,0.097727,0.035410
770.788713,-0.218182,0.043952
770.822277,-0.168182,0.061867
770.855841,-0.118182,0.018464
770.889404,-0.072727,0.041161
770.922967,-0.015909,0.084817
770.956530,-0.047727,0.023918
770.990093,0.204545,0.177142
771.023655,-0.138636,0.050347
771.057217,-0.377273,0.075000
771.090779,0.025000,0.021651
771.124341,-0.025000,0.038753
771.157902,0.261364,0.109440
771.191463,0.045455,0.080930
771.225024,-0.056818,0.139523
771.258585,-0.043182,0.052359
771.292145,0.195455,0.122538
771.325705,0.100000,0.129605
771.359265,-0.077273,0.105308
771.392825,-0.100000,0.061237
771.426384,-0.161364,0.066679
771.459943,0.120455,0.128700
771.493502,0.054545,0.080866
771.527061,-0.025000,0.098824
771.560619,0.597727,0.338115
771.594177,-0.002273,0.033767
771.627735,0.052273,0.073881
771.661293,0.136364,0.083258
771.694850,-0.259091,0.092626
771.728407,-0.168182,0.022613
771.761964,-0.138636,0.070957
771.795521,-0.236364,0.039756
771.829077,-0.286364,0.036007
771.862633,0.118182,0.039886
771.896189,0.068182,0.094174
771.929744,0.025000,0.038753
771.963300,0.029545,0.080249
771.996855,0.052273,0.086744
772.030409,-0.138636,0.050347
772.063964,-0.097727,0.076289
772.097518,-0.211364,0.061269
772.131072,0.100000,0.092375
772.164626,0.129545,0.144899
772.198180,0.395455,0.217530
772.231733,0.027273,0.053203
772.265286,0.320455,0.198792
772.298839,0.086364,0.190001
772.332391,0.263636,0.180278
772.365943,-0.029545,0.102821
772.399495,-0.109091,0.174038
772.433047,0.077273,0.094993
772.466598,0.109091,0.178463
772.500150,0.018182,0.099741
772.533701,0.036364,0.221098
772.567251,0.002273,0.033767
772.600802,-0.122727,0.041845
772.634352,-0.140909,0.020455
772.667902,-0.434091,0.164592
772.701452,0.259091,0.121564
772.735001,0.125000,0.064952
772.768550,0.095455,0.035428
772.802099,-0.040909,0.085129
772.835648,0.102273,0.116304
772.869196,-0.070455,0.038081
772.902744,-0.050000,0.043301
772.936292,-0.125000,0.088044
772.969840,0.029545,0.086446
773.003387,-0.145455,0.044652
773.036934,0.143182,0.089902
773.070481,0.002273,0.056625
773.104028,0.179545,0.211263
773.137574,-0.004545,0.067535
773.171120,-0.313636,0.046075
773.204666,0.184091,0.086982
773.238212,-0.093182,0.032201
773.271757,-0.388636,0.084145
773.305302,-0.027273,0.053203
773.338847,0.052273,0.073881
773.372391,0.300000,0.206155
773.405936,-0.093182,0.059472
773.439480,-0.168182,0.061867
773.473024,0.177273,0.192351
773.506567,0.045455,0.068182
773.540110,0.009091,0.123064
773.573653,-0.025000,0.038753
773.607196,-0.043182,0.094551
773.640739,0.004545,0.091164
773.674281,-0.106818,0.123916
773.707823,-0.406818,0.027905
773.741365,-0.027273,0.122052
773.774906,-0.356818,0.018003
773.808447,0.020455,0.115546
773.841988,-0.022727,0.086334
773.875529,0.050000,0.053926
773.909070,-0.113636,0.059047
773.942610,0.027273,0.081121
773.976150,-0.613636,0.096236
774.009689,-0.047727,0.051363
774.043229,-0.075000,0.096014
774.076768,0.252273,0.149461
774.110307,-0.136364,0.075378
774.143845,-0.045455,0.052911
774.177384,0.000000,0.064282
774.210922,-0.211364,0.047822
774.244460,0.077273,0.063433
774.277997,-0.020455,0.039414
774.311535,-0.088636,0.122237
774.345072,0.097727,0.093562
774.378609,-0.022727,0.040465
774.412145,0.102273,0.176144
774.445682,0.159091,0.113067
774.479218,0.536364,0.250227
774.512754,0.204545,0.184679
774.546289,-0.145455,0.044652
774.579824,-0.118182,0.060473
774.613359,0.070455,0.020423
774.646894,0.047727,0.082282
774.680429,0.218182,0.056408
774.713963,-0.018182,0.093541
774.747497,0.172727,0.106649
774.781031,0.009091,0.100721
774.814564,0.256818,0.111636
774.848097,0.172727,0.106649
774.881630,-0.213636,0.039430
774.915163,-0.109091,0.115127
774.948696,0.247727,0.194590
774.982228,-0.090909,0.045455
775.015760,-0.043182,0.123037
775.049291,0.047727,0.023918
775.082823,-0.188636,0.121005
775.116354,-0.093182,0.032201
775.149885,-0.095455,0.035428
775.183416,0.093182,0.098668
775.216946,0.193182,0.037119
775.250476,-0.090909,0.185335
775.284006,0.040909,0.159723
775.317535,-0.047727,0.023918
775.351065,-0.265909,0.074922
775.384594,-0.043182,0.085484
775.418123,-0.138636,0.050347
775.451651,0.127273,0.087846
775.485180,-0.195455,0.070820
775.518708,-0.111364,0.119675
775.552235,0.004545,0.106818
775.585763,-0.075000,0.064952
775.619290,-0.504545,0.050360
775.652817,-0.038636,0.097297
775.686344,0.020455,0.063667
775.719870,0.184091,0.098143
775.753397,-0.115909,0.070225
775.786923,-0.018182,0.061237
775.820448,0.163636,0.136817
775.853974,-0.015909,0.203695
775.887499,0.247727,0.142708
775.921024,0.372727,0.178984
775.954549,0.313636,0.058077
775.988073,0.324242,0.091249
776.021597,-0.022727,0.073399
776.055121,0.247727,0.297638
776.088645,0.070455,0.088978
776.122168,-0.143182,0.024133
776.155691,0.302273,0.124124
776.189214,0.093182,0.055705
776.222737,-0.170455,0.043524
776.256259,0.063636,0.134725
776.289781,0.020455,0.039414
776.323303,0.043182,0.094551
776.356824,-0.286364,0.036007
776.390346,0.093182,0.055705
776.423867,0.315909,0.146070
776.457387,-0.379545,0.028089
776.490908,0.440909,0.279342
776.524428,0.095455,0.047835
776.557948,-0.075000,0.064952
776.591468,0.063636,0.134725
776.624987,-0.047727,0.051363
776.658506,-0.115909,0.062438
776.692025,0.234091,0.131283
776.725544,-0.197727,0.104564
776.759062,0.018182,0.061237
776.792581,-0.281818,0.040909
776.826099,0.145455,0.042153
776.859616,0.004545,0.085311
776.893134,0.213636,0.060174
776.926651,0.018182,0.061237
776.960167,-0.290909,0.072514
776.993684,0.006818,0.075472
777.027200,0.097727,0.076289
777.060716,0.377273,0.231003
777.094232,0.052273,0.073881
777.127748,0.170455,0.102115
777.161263,-0.097727,0.035410
777.194778,0.097727,0.076289
777.228293,-0.138636,0.105987
777.261807,-0.672727,0.072798
777.295322,-0.118182,0.018464
777.328836,0.027273,0.053203
777.362349,0.209091,0.154579
777.395863,-0.120455,0.039545
777.429376,-0.100000,0.061237
777.462889,-0.115909,0.074369
777.496401,-0.213636,0.118116
777.529914,-0.045455,0.113135
777.563426,-0.120455,0.095204
777.596938,0.229545,0.225799
777.630449,-0.004545,0.059396
777.663961,0.170455,0.054106
777.697472,0.184091,0.208705
777.730983,-0.022727,0.040465
777.764493,0.263636,0.042882
777.798004,0.245455,0.164329
777.831514,-0.134091,0.095095
777.865023,-0.025000,0.098824
777.898533,-0.095455,0.070747
777.932042,-0.090909,0.065948
777.965551,0.088636,0.099709
777.999060,-0.031818,0.143686
778.032568,0.100000,0.061237
778.066076,0.002273,0.060334
778.099584,-0.025000,0.038753
778.133092,0.052273,0.054391
778.166599,0.120455,0.023038
778.200107,-0.095455,0.106090
778.233613,-0.029545,0.089845
778.267120,0.004545,0.059396
778.300626,0.022727,0.060856
778.334132,-0.261364,0.053337
778.367638,0.220455,0.127693
778.401144,-0.022727,0.040465
778.434649,-0.002273,0.033767
778.468154,-0.120455,0.023038
778.501659,0.106818,0.161552
778.535163,0.004545,0.080063
778.568668,-0.002273,0.179254
778.602172,0.163636,0.057765
778.635675,-0.168182,0.087049
778.669179,-0.186364,0.053831
778.702682,0.461364,0.261144
778.736185,-0.163636,0.079188
778.769688,-0.115909,0.070225
778.803190,0.050000,0.077506
778.836692,-0.211364,0.073390
778.870194,0.004545,0.080063
778.903696,0.154545,0.217589
778.937197,0.015909,0.103571
778.970698,0.281818,0.062902
779.004199,0.063636,0.197975
779.037699,-0.070455,0.062850
779.071200,-0.259091,0.033633
779.104700,0.172727,0.162401
779.138199,-0.047727,0.051363
779.171699,-0.070455,0.020423
779.205198,-0.070455,0.088978
779.238697,-0.122727,0.054782
779.272196,0.670455,0.368159
779.305694,0.077273,0.154996
779.339192,0.054545,0.087019
779.372690,0.022727,0.060856
779.406188,-0.052273,0.086744
779.439685,-0.115909,0.037397
779.473182,0.127273,0.087846
779.506679,-0.027273,0.095021
779.540176,0.047727,0.100688
779.573672,-0.045455,0.052911
779.607168,0.115909,0.037397
779.640664,0.020455,0.071320
779.674160,0.234091,0.126637
779.707655,0.097727,0.035410
779.741150,0.072727,0.041161
779.774644,0.150000,0.082916
779.808139,0.104545,0.235762
779.841633,-0.165909,0.019385
779.875127,-0.100000,0.050000
779.908621,-0.093182,0.032201
779.942114,-0.043182,0.052359
779.975607,0.029545,0.086446
780.009100,0.125000,0.081968
780.042593,0.000000,0.032141
780.076085,-0.047727,0.055426
780.109577,-0.129545,0.116171
780.143069,0.309091,0.080482
780.176560,0.081818,0.115798
780.210052,-0.122727,0.054782
780.243543,-0.045455,0.074273
780.277033,0.179545,0.125736
780.310524,-0.022727,0.019682
780.344014,0.000000,0.035355
780.377504,0.027273,0.039756
780.410994,-0.025000,0.038753
780.444483,-0.122727,0.061783
780.477972,0.215909,0.068813
780.511461,0.165909,0.037534
780.544950,0.138636,0.067831
780.578438,-0.093182,0.032201
780.611926,0.118182,0.049061
780.645414,0.097727,0.035410
780.678902,-0.045455,0.076803
780.712389,0.352273,0.084022
780.745876,-0.079545,0.092786
780.779363,0.006818,0.150871
780.812849,-0.147727,0.088044
780.846335,-0.165909,0.037534
780.879821,-0.143182,0.055519
780.913307,0.304545,0.318401
780.946792,-0.168182,0.061867
780.980277,-0.004545,0.067535
781.013762,-0.022727,0.019682
781.047247,-0.384091,0.040703
781.080731,0.022727,0.019682
781.114215,-0.068182,0.112563
781.147699,-0.163636,0.050206
781.181183,-0.286364,0.006818
781.214666,0.027273,0.053203
781.248149,-0.288636,0.038886
781.281632,-0.138636,0.050347
781.315114,-0.025000,0.054486
781.348596,0.343182,0.125819
781.382078,0.165909,0.037534
781.415560,0.090909,0.057586
781.449041,0.375000,0.158550
781.482522,-0.056818,0.111358
781.516003,0.159091,0.118466
781.549484,-0.127273,0.172128
781.582964,0.320455,0.258879
781.616444,-0.152273,0.176085
781.649924,0.243182,0.174612
781.683404,0.025000,0.098824
781.716883,0.088636,0.133313
781.750362,0.072727,0.050103
781.783841,0.093182,0.121389
781.817319,-0.090909,0.148547
781.850797,-0.165909,0.037534
781.884275,0.136364,0.100155
781.917753,0.384091,0.336952
781.951230,-0.002273,0.056625
781.984707,0.093182,0.055705
782.018184,-0.095455,0.032221
782.051661,0.415909,0.304348
782.085137,0.156818,0.104909
782.118613,0.290909,0.054545
782.152089,0.263636,0.062490
782.185564,0.106818,0.174227
782.219040,-0.127273,0.094694
782.252515,0.125000,0.088044
782.285989,-0.097727,0.035410
782.319464,-0.334091,0.025180
782.352938,0.118182,0.073082
782.386412,-0.063636,0.090568
782.419885,-0.145455,0.044652
782.453359,-0.002273,0.099190
782.486832,-0.009091,0.153000
782.520305,-0.163636,0.050206
782.553777,0.050000,0.053926
782.587249,-0.240909,0.029545
782.620721,0.284091,0.125531
782.654193,-0.120455,0.039545
782.687665,-0.122727,0.095913
782.721136,0.240909,0.083102
782.754607,-0.170455,0.077631
782.788077,0.004545,0.057541
782.821548,0.043182,0.152979
782.855018,0.134091,0.123456
782.888488,0.193182,0.169631
782.921957,-0.022727,0.049533
782.955427,-0.050000,0.040719
782.988896,-0.059091,0.141037
783.022365,0.043182,0.052359
783.055833,0.070455,0.020423
783.089301,0.000000,0.073364
783.122769,-0.238636,0.024557
783.156237,0.379545,0.146459
783.189704,-0.052273,0.086744
783.223172,0.138636,0.100174
783.256638,0.120455,0.099138
783.290105,-0.056818,0.109392
783.323571,0.202273,0.205059
783.357037,0.118182,0.118269
783.390503,0.188636,0.084512
783.423969,0.100000,0.153405
783.457434,0.272727,0.309775
783.490899,0.090909,0.105822
783.524364,0.211364,0.047822
783.557828,-0.193182,0.087041
783.591292,0.247727,0.160622
783.624756,0.147727,0.173930
783.658220,-0.288636,0.063341
783.691683,0.050000,0.053926
783.725146,0.000000,0.035355
783.758609,-0.047727,0.051363
783.792072,0.331818,0.035863
783.825534,0.159091,0.221483
783.858996,-0.140909,0.038098
783.892458,-0.143182,0.082345
783.925919,0.245455,0.146128
783.959381,0.072727,0.081502
783.992842,0.077273,0.123587
784.026302,-0.163636,0.050206
784.059763,0.229545,0.228075
784.093223,-0.125000,0.088044
784.126683,0.122727,0.071184
784.160142,0.122727,0.071184
784.193601,-0.200000,0.106066
784.227060,0.000000,0.032141
784.260519,0.145455,0.044652
784.293978,0.095455,0.077706
784.327436,0.025000,0.021651
784.360894,-0.027273,0.081121
784.394352,-0.129545,0.116171
784.427809,-0.097727,0.099761
784.461266,-0.311364,0.064952
784.494723,-0.215909,0.055705
784.528180,-0.140909,0.051975
784.561636,0.131818,0.120283
784.595092,-0.209091,0.066959
784.628548,-0.025000,0.063260
784.662003,0.272727,0.140872
784.695458,0.300000,0.231840
784.728913,0.050000,0.043301
784.762368,-0.127273,0.112769
784.795823,-0.165909,0.062521
784.829277,-0.147727,0.109014
784.862731,0.059091,0.135242
784.896184,-0.022727,0.040465
784.929637,-0.047727,0.051363
784.963091,0.043182,0.123037
784.996543,0.075000,0.052458
785.029996,0.047727,0.023918
785.063448,0.413636,0.170121
785.096900,0.193182,0.256796
785.130352,0.343182,0.242882
785.163803,0.302273,0.319274
785.197254,0.259091,0.033633
785.230705,0.065909,0.113880
785.264156,-0.140909,0.051975
785.297606,-0.070455,0.062850
785.331056,0.118182,0.018464
785.364506,0.097727,0.162030
785.397955,-0.136364,0.075378
785.431405,0.090909,0.065948
785.464854,0.006818,0.090532
785.498302,0.127273,0.087846
785.531751,-0.002273,0.060334
785.565199,0.122727,0.054782
785.598647,-0.231818,0.092066
785.632094,-0.004545,0.047727
785.665542,-0.002273,0.060334
785.698989,-0.195455,0.061364
785.732436,0.234091,0.092396
785.765882,0.015909,0.181715
785.799328,0.045455,0.052911
785.832774,-0.284091,0.029348
785.866220,0.143182,0.051464
785.899665,-0.075000,0.064952
785.933111,-0.095455,0.032221
785.966555,0.195455,0.061364
786.000000,-0.022727,0.073399
786.033444,-0.068182,0.087286
786.066888,-0.140909,0.051975
786.100332,-0.336364,0.045227
786.133776,0.068182,0.051676
786.167219,0.156818,0.142490
786.200662,0.118182,0.049061
786.234104,0.018182,0.061237
786.267547,-0.118182,0.107661
786.300989,-0.168182,0.022613
786.334431,0.318182,0.098857
786.367872,-0.118182,0.018464
786.401314,0.025000,0.021651
786.434755,0.193182,0.062272
786.468196,-0.115909,0.089614
786.501636,-0.170455,0.043524
786.535076,-0.025000,0.021651
786.568516,0.043182,0.052359
786.601956,-0.045455,0.076803
786.635395,0.002273,0.075540
786.668834,0.209091,0.103353
786.702273,0.206818,0.102921
786.735712,-0.018182,0.084060
786.769150,0.220455,0.279765
786.802588,-0.072727,0.088840
786.836026,0.065909,0.187617
786.869463,-0.338636,0.078557
786.902900,0.213636,0.268307
786.936337,-0.088636,0.088746
786.969774,0.102273,0.077631
787.003210,0.188636,0.148803
787.036646,-0.122727,0.041845
787.070082,-0.002273,0.075540
787.103518,0.045455,0.042030
787.136953,0.143182,0.024133
787.170388,-0.118182,0.039886
787.203823,-0.404545,0.016231
787.237257,0.000000,0.077673
787.270691,0.040909,0.085129
787.304125,-0.072727,0.061322
787.337559,0.281818,0.150687
787.370992,-0.068182,0.080128
787.404425,-0.243182,0.058509
787.437858,0.093182,0.059472
787.471290,0.029545,0.070519
787.504723,-0.134091,0.136416
787.538155,-0.265909,0.055798
787.571586,0.043182,0.052359
787.605018,0.368182,0.209301
787.638449,0.165909,0.019385
787.671880,0.131818,0.225000
787.705310,-0.097727,0.076289
787.738741,-0.047727,0.051363
787.772171,0.061364,0.199518
787.805600,0.161364,0.141216
787.839030,-0.038636,0.109392
787.872459,0.352273,0.331840
787.905888,0.111364,0.115993
787.939317,-0.120455,0.055052
787.972745,0.095455,0.047835
788.006173,-0.029545,0.070519
788.039601,0.127273,0.112769
788.073028,-0.088636,0.086266
788.106456,0.090909,0.086304
788.139883,0.000000,0.000000
788.173309,0.343182,0.144327
788.206736,0.047727,0.023918
788.240162,0.479545,0.147338
788.273588,0.122727,0.082165
788.307013,-0.165909,0.037534
788.340439,-0.002273,0.033767
788.373864,-0.106818,0.204454
788.407288,0.070455,0.067449
788.440713,0.222727,0.198405
788.474137,-0.177273,0.141804
788.507561,0.029545,0.070519
788.540985,-0.022727,0.107877
788.574408,-0.095455,0.064323
788.607831,0.263636,0.087493
788.641254,0.125000,0.108253
788.674677,-0.145455,0.082322
788.708099,-0.147727,0.075404
788.741521,0.020455,0.165469
788.774943,-0.025000,0.021651
788.808364,0.393182,0.184732
788.841785,0.440909,0.179344
788.875206,0.527273,0.174985
788.908627,0.143182,0.051464
788.942047,0.122727,0.041845
788.975467,-0.143182,0.071753
789.008887,0.027273,0.113272
789.042306,-0.279545,0.096604
789.075726,-0.065909,0.068588
789.109145,0.054545,0.080866
789.142563,-0.045455,0.076803
789.175982,-0.027273,0.069976
789.209400,0.070455,0.038081
789.242817,-0.027273,0.088198
789.276235,0.034091,0.109392
789.309652,-0.068182,0.092123
789.343069,0.000000,0.032141
789.376486,0.190909,0.047997
789.409902,-0.165909,0.053626
789.443319,-0.206818,0.180260
789.476735,0.188636,0.144363
789.510150,0.209091,0.072798
789.543565,0.138636,0.050347
789.576980,-0.075000,0.064952
789.610395,0.020455,0.050858
789.643810,0.284091,0.394086
789.677224,0.102273,0.286280
789.710638,-0.002273,0.056625
789.744052,-0.261364,0.018568
789.777465,0.047727,0.055426
789.810878,-0.040909,0.101716
789.844291,-0.211364,0.047822
789.877703,-0.140909,0.080321
789.911116,-0.338636,0.078557
789.944528,-0.002273,0.085666
789.977939,0.077273,0.123587
790.011351,-0.097727,0.061269
790.044762,-0.097727,0.076289
790.078173,0.245455,0.128525
790.111583,-0.122727,0.071184
790.144994,0.002273,0.056625
790.178404,0.029545,0.086446
790.211813,0.122727,0.089159
790.245223,0.254545,0.216542
790.278632,-0.143182,0.024133
790.312041,0.022727,0.040465
790.345450,-0.209091,0.090738
790.378858,-0.050000,0.098779
790.412266,-0.022727,0.060856
790.445674,-0.120455,0.055052
790.479081,0.161364,0.100226
790.512488,0.143182,0.051464
790.545895,0.100000,0.121586
790.579302,-0.006818,0.088103
790.612708,0.115909,0.197227
790.646115,0.140909,0.051975
790.679520,0.261364,0.098195
790.712926,0.281818,0.052025
790.746331,-0.118182,0.039886
790.779736,0.115909,0.049311
790.813141,-0.027273,0.039756
790.846545,0.081818,0.159610
790.879949,0.065909,0.084878
790.913353,0.120455,0.039545
790.946757,-0.661364,0.078557
790.980160,-0.539394,0.034368
791.013563,-0.088636,0.142744
791.046966,0.220455,0.114197
791.080368,-0.070455,0.020423
791.113771,0.115909,0.074369
791.147173,0.020455,0.039414
791.180574,-0.045455,0.042030
791.213976,-0.140909,0.040846
791.247377,0.054545,0.106406
791.280777,0.254545,0.167751
791.314178,-0.593182,0.042564
791.347578,-0.329545,0.046396
791.380978,-0.215909,0.055705
791.414378,0.097727,0.035410
791.447777,0.100000,0.117260
791.481176,0.050000,0.040719
791.514575,0.252273,0.278024
791.547973,-0.213636,0.039430
791.581372,-0.011364,0.157766
791.614770,-0.161364,0.104465
791.648167,0.002273,0.103472
791.681565,-0.068182,0.051676
791.714962,-0.243182,0.089384
791.748359,-0.143182,0.082345
791.781755,0.145455,0.069829
791.815152,-0.004545,0.106818
791.848548,-0.093182,0.032201
791.881943,0.022727,0.040465
791.915339,0.168182,0.150258
791.948734,0.006818,0.075472
791.982129,-0.022727,0.073399
792.015523,0.095455,0.110852
792.048918,-0.029545,0.070519
792.082312,0.047727,0.051363
792.115705,-0.170455,0.054106
792.149099,-0.013636,0.218123
792.182492,0.265909,0.074922
792.215885,0.022727,0.060856
792.249278,0.045455,0.052911
792.282670,-0.100000,0.061237
792.316062,0.261364,0.018568
792.349454,0.000000,0.073364
792.382845,-0.004545,0.120669
792.416236,0.027273,0.053203
792.449627,0.031818,0.103178
792.483018,-0.159848,0.020757
792.516408,0.309091,0.494776
792.549798,0.254545,0.097701
792.583188,0.902273,0.340960
792.616578,0.847727,0.155524
792.649967,0.356818,0.094113
792.683356,0.081818,0.148790
792.716745,-0.168182,0.041969
792.750133,-0.309091,0.072656
792.783521,-0.106818,0.146811
792.816909,-0.445455,0.082447
792.850296,0.147727,0.072469
792.883684,-0.161364,0.100226
792.917071,-0.213636,0.107493
792.950457,0.115909,0.099657
792.983844,-0.138636,0.050347
793.017230,0.338636,0.278859
793.050616,-0.068182,0.051676
793.084001,-0.336364,0.079966
793.117386,-0.022727,0.049533
793.150771,0.095455,0.070747
793.184156,-0.093182,0.032201
793.217541,0.009091,0.106746
793.250925,0.136364,0.216709
793.284309,-0.027273,0.092988
793.317692,-0.052273,0.054391
793.351075,-0.075000,0.041458
793.384458,0.140909,0.098569
793.417841,0.118182,0.086064
793.451223,-0.145455,0.055017
793.484606,0.027273,0.053203
793.517988,0.038636,0.156088
793.551369,0.068182,0.051676
793.584750,0.254545,0.116952
793.618131,-0.138636,0.084267
793.651512,-0.129545,0.116171
793.684893,-0.122727,0.071184
793.718273,-0.022727,0.019682
793.751653,-0.102273,0.077631
793.785032,0.018182,0.084060
793.818411,0.047727,0.178243
793.851790,-0.163636,0.091306
793.885169,-0.218182,0.094857
793.918548,0.095455,0.110852
793.951926,0.022727,0.060856
793.985304,-0.047727,0.023918
794.018681,-0.122727,0.082165
794.052059,0.020455,0.050858
794.085436,0.247727,0.166929
794.118812,-0.095455,0.047835
794.152189,0.113636,0.126029
794.185565,-0.054545,0.103303
794.218941,-0.411364,0.078426
794.252317,0.443182,0.317522
794.285692,0.190909,0.166732
794.319067,0.238636,0.124912
794.352442,0.277273,0.223711
794.385816,0.700000,0.403791
794.419190,0.911364,0.073320
794.452564,1.545455,0.788188
794.485938,0.695455,0.276835
794.519311,0.090909,0.148547
794.552684,-0.025000,0.067831
794.586057,-0.111364,0.101760
794.619429,0.145455,0.027273
794.652802,-0.411364,0.078426
794.686173,0.336364,0.057406
794.719545,0.379545,0.200886
794.752916,0.193182,0.062272
794.786287,0.554545,0.165707
794.819658,0.295455,0.152747
794.853029,-0.086364,0.104718
794.886399,0.075000,0.372427
794.919769,0.163636,0.093376
794.953138,0.263636,0.042882
794.986508,0.168182,0.117590
795.019877,0.115909,0.049311
795.053245,-0.150000,0.082916
795.086614,0.079545,0.150254
795.119982,0.056818,0.099502
795.153350,0.445455,0.250351
795.186718,-0.168182,0.061867
795.220085,-0.029545,0.080249
795.253452,-0.334091,0.051963
795.286819,-0.033333,0.038075
795.320185,0.143182,0.024133
795.353551,-0.477273,0.034091
795.386917,0.304545,0.245212
795.420283,-0.309091,0.072656
795.453648,0.125000,0.064952
795.487013,0.097727,0.061269
795.520378,0.263636,0.024266
795.553742,0.179545,0.208804
795.587107,-0.100000,0.059440
795.620471,0.029545,0.062768
795.653834,0.065909,0.171749
795.687197,-0.220455,0.105547
795.720560,-0.120455,0.063748
795.753923,0.038636,0.201451
795.787286,-0.050000,0.068973
795.820648,0.093182,0.085060
795.854010,0.068182,0.068823
795.887371,0.097727,0.135351
795.920733,-0.072727,0.021076
795.954094,0.020455,0.063667
795.987454,0.120455,0.023038
796.020815,0.154545,0.215202
796.054175,-0.406818,0.042564
796.087535,-0.234091,0.069560
796.120894,0.015909,0.181715
796.154254,0.175000,0.140004
796.187613,0.125000,0.088044
796.220971,0.550000,0.211021
796.254330,0.788636,0.307001
796.287688,0.484091,0.149496
796.321046,2.247727,0.263624
796.354403,2.434848,0.661259
796.387761,1.015909,0.396633
796.421118,0.231818,0.244875
796.454474,0.050000,0.081597
796.487831,0.265909,0.078820
796.521187,0.113636,0.170727
796.554543,0.022727,0.040465
796.587898,0.070455,0.020423
796.621254,-0.138636,0.100174
796.654609,-0.190909,0.077806
796.687963,-0.209091,0.101487
796.721318,0.193182,0.058685
796.754672,0.234091,0.066368
796.788026,-0.088636,0.174286
796.821379,0.065909,0.078557
796.854732,0.181818,0.212934
796.888085,0.145455,0.055017
796.921438,0.052273,0.073881
796.954790,0.236364,0.165551
796.988142,-0.259091,0.048798
797.021494,0.213636,0.088052
797.054846,-0.027273,0.081121
797.088197,0.215909,0.090017
797.121548,0.161364,0.058421
797.154899,0.175000,0.295514
797.188249,-0.002273,0.147653
797.221599,0.150000,0.194700
797.254949,-0.027273,0.113272
797.288298,0.147727,0.134854
797.321648,0.084091,0.209815
797.354996,-0.027273,0.123399
797.388345,0.000000,0.073364
797.421693,0.222727,0.251452
797.455041,-0.222727,0.185238
797.488389,-0.120455,0.063748
797.521737,-0.022727,0.049533
797.555084,0.100000,0.086603
797.588431,-0.097727,0.035410
797.621777,0.168182,0.089217
797.655124,0.320455,0.254452
797.688470,-0.175000,0.128459
797.721815,-0.359091,0.063188
797.755161,0.643182,0.342472
797.788506,0.365909,0.127612
797.821851,-0.163636,0.093376
797.855196,0.234091,0.066368
797.888540,0.095455,0.119594
797.921884,0.002273,0.161679
797.955228,-0.377273,0.038636
797.988571,0.320455,0.132731
798.021914,0.604545,0.410106
798.055257,0.106818,0.133623
798.088599,0.406818,0.140739
798.121942,0.538636,0.273321
798.155284,1.047727,0.526031
798.188625,2.027273,0.307062
798.221967,4.172727,0.424921
798.255308,3.713636,0.760121
798.288649,1.868182,0.517678
798.321989,0.961364,0.316430
798.355329,0.095455,0.205415
798.388669,0.063636,0.114677
798.422009,0.111364,0.136454
798.455348,-0.070455,0.098563
798.488687,0.188636,0.091891
798.522026,-0.093182,0.074854
798.555365,-0.006818,0.169874
798.588703,-0.579545,0.099502
798.622041,0.268182,0.290705
798.655378,0.215909,0.186817
798.688716,-0.029545,0.089845
798.722053,-0.125000,0.081968
798.755389,-0.006818,0.090532
798.788726,0.297727,0.262643
798.822062,-0.031818,0.085613
798.855398,0.006818,0.175203
798.888733,-0.050000,0.043301
798.922069,0.050000,0.081597
798.955404,0.054545,0.224253
798.988738,-0.218182,0.056408
799.022073,0.111364,0.152810
799.055407,0.038636,0.118460
799.088741,0.245455,0.146128
799.122074,-0.006818,0.090532
799.155408,0.254545,0.249234
799.188741,0.215909,0.085060
799.222073,0.145455,0.145915
799.255406,-0.215909,0.040449
799.288738,-0.075000,0.041458
799.322069,0.277273,0.186903
799.355401,-0.018182,0.084060
799.388732,-0.193182,0.077097
799.422063,-0.165909,0.183582
799.455394,0.022727,0.117062
799.488724,-0.125000,0.112924
799.522054,0.131818,0.137176
799.555384,0.247727,0.219771
799.588713,0.134091,0.210700
799.622042,-0.157576,0.016906
799.655371,-0.004545,0.067535
799.688700,-0.120455,0.023038
799.722028,0.500000,0.226385
799.755356,0.190909,0.035646
799.788684,0.120455,0.039545
799.822011,0.122727,0.054782
799.855338,0.052273,0.111913
799.888665,-0.095455,0.035428
799.921992,0.370455,0.226302
799.955318,0.575000,0.334043
799.988644,0.670455,0.332601
800.021969,0.752273,0.139634
800.055295,1.672727,0.186751
800.088620,2.106818,0.489121
800.121945,5.257576,0.619867
800.155269,7.777273,0.784071
800.188593,4.006818,0.945036
800.221917,1.550000,0.298438
800.255241,0.831818,0.240641
800.288564,0.175000,0.089268
800.321887,0.284091,0.029348
800.355210,0.297727,0.165687
800.388532,-0.015909,0.244323
800.421854,-0.140909,0.112701
800.455176,0.302273,0.288616
800.488498,0.143182,0.055519
800.521819,-0.015909,0.125407
800.555140,-0.263636,0.074759
800.588461,0.186364,0.064403
800.621781,0.770455,0.425739
800.655101,0.215909,0.040449
800.688421,0.075000,0.041458
800.721740,-0.386364,0.074239
800.755060,0.075000,0.052458
800.788379,-0.186364,0.147867
800.821697,0.004545,0.087522
800.855015,0.052273,0.054391
800.888334,0.250000,0.216506
800.921651,0.084091,0.240123
800.954969,0.150000,0.082916
800.988286,0.120455,0.055052
801.021603,0.088636,0.107583
801.054919,0.000000,0.035355
801.088235,0.477273,0.180034
801.121551,0.095455,0.064323
801.154867,-0.145455,0.027273
801.188183,-0.040909,0.085129
801.221498,-0.454545,0.075992
801.254812,-0.043182,0.052359
801.288127,0.095455,0.102726
801.321441,0.104545,0.102877
801.354755,0.243182,0.135732
801.388069,0.243939,0.164899
801.421382,0.404545,0.133086
801.454695,1.031818,0.168994
801.488008,0.331818,0.035863
801.521320,-0.045455,0.113135
801.554632,0.206818,0.125531
801.587944,-0.124242,0.049167
801.621256,-0.113636,0.092123
801.654567,0.495455,0.326031
801.687878,0.093182,0.144685
801.721189,0.111364,0.191675
801.754499,0.027273,0.039756
801.787809,0.443182,0.310115
801.821119,-0.122727,0.122748
801.854428,-0.375000,0.095095
801.887737,0.204545,0.352287
801.921046,0.443182,0.127572
801.954355,0.468182,0.164534
801.987663,1.095455,0.073399
802.020971,3.290152,0.411592
802.054279,7.927273,1.058998
802.087586,9.938636,0.998570
802.120894,3.920455,0.629389
802.154200,1.681818,0.688708
802.187507,0.650000,0.269843
802.220813,0.206818,0.174612
802.254119,0.427273,0.333619
802.287425,0.088636,0.107583
802.320730,0.295455,0.112884
802.354035,0.077273,0.094993
802.387340,0.043182,0.128218
802.420644,-0.195455,0.108925
802.453949,-0.156818,0.164435
802.487252,-0.163636,0.091306
802.520556,0.052273,0.054391
802.553859,0.311364,0.064952
802.587162,0.143182,0.024133
802.620465,-0.070455,0.038081
802.653767,0.345455,0.192954
802.687069,-0.288636,0.038886
802.720371,0.420455,0.226325
802.753673,-0.093182,0.032201
802.786974,-0.211364,0.069188
802.820275,0.313636,0.124254
802.853576,-0.022727,0.040465
802.886876,0.168182,0.089217
802.920176,-0.052273,0.070884
802.953476,0.154545,0.217589
802.986775,0.150000,0.133821
803.020074,0.206818,0.226165
803.053373,-0.050000,0.068973
803.086672,0.127273,0.145028
803.119970,0.331818,0.261482
803.153268,-0.361364,0.076221
803.186565,0.147727,0.221713
803.219863,0.272727,0.215610
803.253160,-0.004545,0.057541
803.286457,0.213636,0.107253
803.319753,0.009091,0.214601
803.353049,0.304545,0.124046
803.386345,0.047727,0.051363
803.419641,0.197727,0.182849
803.452936,0.104545,0.233317
803.486231,-0.027273,0.069976
803.519525,0.109091,0.181932
803.552820,0.050000,0.053926
803.586114,0.206818,0.125531
803.619408,0.913636,0.327296
803.652701,0.209091,0.120133
803.685994,0.170455,0.102115
803.719287,-0.124242,0.049167
803.752580,-0.140909,0.148146
803.785872,0.329545,0.213404
803.819164,0.045455,0.076803
803.852456,0.218182,0.124814
803.885747,0.978788,0.239238
803.919038,2.827273,0.423557
803.952329,5.459091,0.701537
803.985620,12.143182,2.015119
804.018910,10.965909,0.473299
804.052200,3.498485,0.297258
804.085489,1.111364,0.283616
804.118779,0.522727,0.205716
804.152068,0.297727,0.386836
804.185357,0.127273,0.304783
804.218645,0.297727,0.183159
804.251933,0.177273,0.237508
804.285221,-0.072727,0.041161
804.318508,-0.213636,0.072834
804.351796,0.206818,0.086565
804.385083,-0.263636,0.042882
804.418369,0.125000,0.281275
804.451656,-0.195455,0.070820
804.484942,0.259091,0.476347
804.518227,0.718182,0.344031
804.551513,0.602273,0.244535
804.584798,0.877273,0.113795
804.618083,0.395455,0.131367
804.651367,0.184091,0.201809
804.684652,-0.315909,0.128218
804.717936,0.040909,0.119421
804.751219,0.113636,0.059047
804.784503,0.054545,0.162242
804.817786,-0.170455,0.077631
804.851068,-0.050000,0.077506
804.884351,-0.147727,0.056442
804.917633,0.202273,0.172079
804.950915,-0.338636,0.126759
804.984196,0.488636,0.140409
805.017478,-0.128788,0.068043
805.050759,0.190909,0.160770
805.084039,0.090909,0.065948
805.117320,0.090909,0.065948
805.150600,0.247727,0.219536
805.183879,0.043182,0.132809
805.217159,0.338636,0.237005
805.250438,-0.025000,0.021651
805.283717,0.020455,0.050858
805.316995,-0.125000,0.142309
805.350274,0.713636,0.450086
805.383552,0.022727,0.107637
805.416829,0.150000,0.225000
805.450107,0.300000,0.206155
805.483384,0.038636,0.180632
805.516660,0.300000,0.186502
805.549937,-0.350000,0.160883
805.583213,0.331818,0.111965
805.616489,0.068182,0.037689
805.649764,0.206818,0.135122
805.683040,-0.154545,0.174483
805.716315,-0.293182,0.093728
805.749589,0.177273,0.240125
805.782864,0.834091,0.320227
805.816138,1.327273,0.172847
805.849411,3.129545,0.418285
805.882685,10.909091,0.224736
805.915958,20.687121,0.809744
805.949231,32.105303,1.700629
805.982504,13.063636,0.779661
806.015776,4.125000,0.671747
806.049048,0.909091,0.382521
806.082319,1.084091,0.147548
806.115591,0.095455,0.179689
806.148862,0.272727,0.156274
806.182133,-0.136364,0.123273
806.215403,0.031061,0.018568
806.248673,0.006818,0.181003
806.281943,0.359091,0.181861
806.315213,0.877273,0.113795
806.348482,0.311364,0.233912
806.381751,0.238636,0.024557
806.415019,0.150000,0.160078
806.448288,-0.213636,0.039430
806.481556,0.004545,0.059396
806.514823,0.054545,0.087019
806.548091,0.145455,0.042153
806.581358,-0.006818,0.119977
806.614625,0.293182,0.119242
806.647891,0.543182,0.070592
806.681158,0.625000,0.217408
806.714424,0.272727,0.142259
806.747689,0.152273,0.159200
806.780955,-0.013636,0.158065
806.814220,0.027273,0.069976
806.847484,0.025000,0.110004
806.880749,0.272727,0.263087
806.914013,0.125000,0.240316
806.947277,-0.297727,0.204176
806.980540,0.815909,0.189888
807.013803,0.368182,0.411941
807.047066,-0.188636,0.170602
807.080329,0.084091,0.193472
807.113591,0.212879,0.167773
807.146853,0.138636,0.067831
807.180115,0.747727,0.343120
807.213376,-0.350000,0.084459
807.246637,0.363636,0.127110
807.279898,0.009091,0.153000
807.313159,0.161364,0.123331
807.346419,0.197727,0.104564
807.379679,0.100000,0.129605
807.412938,-0.140909,0.076162
807.446198,-0.036364,0.215058
807.479457,-0.095455,0.095590
807.512715,0.325000,0.130098
807.545974,0.590909,0.185028
807.579232,0.286364,0.250423
807.612490,0.413636,0.184091
807.645747,0.436364,0.324244
807.679004,1.297727,0.268862
807.712261,0.436364,0.125803
807.745518,2.200000,0.424982
807.778774,6.793939,0.769252
807.812030,17.495455,0.800932
807.845285,35.681818,2.103681
807.878541,61.188636,1.276809
807.911796,44.329545,3.799862
807.945051,12.462879,0.802349
807.978305,2.940909,0.399296
808.011559,1.800000,0.466037
808.044813,0.027273,0.113044
808.078066,1.921970,0.541476
808.111320,0.869697,0.492359
808.144573,0.313636,0.212266
808.177825,0.109091,0.111526
808.211078,0.650000,0.211949
808.244330,-0.286364,0.111038
808.277581,0.009091,0.120390
808.310833,-0.303788,0.188331
808.344084,0.502273,0.436285
808.377335,-0.568182,0.080898
808.410585,0.213636,0.202400
808.443835,-0.018182,0.202974
808.477085,0.306818,0.491670
808.510335,-0.152273,0.101709
808.543584,0.415909,0.174760
808.576833,0.513636,0.241263
808.610082,0.834091,0.482508
808.643330,0.134091,0.234595
808.676578,0.206818,0.080377
808.709826,-0.197727,0.136982
808.743073,-0.359091,0.090139
808.776320,0.547727,0.395512
808.809567,0.290909,0.195851
808.842814,1.140909,0.287417
808.876060,0.184091,0.106133
808.909306,0.475000,0.083219
808.942552,0.411364,0.096176
808.975797,-0.011364,0.121686
809.009042,0.138636,0.050347
809.042287,0.445455,0.218608
809.075531,0.052273,0.073881
809.108775,0.529545,0.177749
809.142019,0.545455,0.325500
809.175262,0.761364,0.277131
809.208506,0.211364,0.114243
809.241748,0.679545,0.234771
809.274991,0.913636,0.451289
809.308233,0.577273,0.210507
809.341475,0.070455,0.252475
809.374717,-0.052273,0.155424
809.407958,-0.025000,0.139634
809.441199,0.118182,0.325294
809.474440,-0.681818,0.306186
809.507680,-2.081818,0.135490
809.540921,-1.870455,0.138184
809.574160,-0.959091,0.231093
809.607400,0.538636,0.228483
809.640639,0.928030,0.169265
809.673878,2.027273,0.548034
809.707117,3.315909,0.454970
809.740355,11.015909,0.564647
809.773593,25.822727,1.221829
809.806831,47.503030,2.914975
809.840068,87.536364,3.397497
809.873305,45.577273,2.864844
809.906542,10.073485,1.692037
809.939778,4.522727,0.790651
809.973015,1.376515,0.305382
810.006250,1.806818,0.414402
810.039486,0.468182,0.109869
810.072721,0.927273,0.277310
810.105956,0.320455,0.453537
810.139191,0.484091,0.248079
810.172425,0.704545,0.232363
810.205659,0.736364,0.241744
810.238893,0.388636,0.187727
810.272126,1.250000,0.623850
810.305359,0.327273,0.344931
810.338592,1.481818,0.534685
810.371825,2.206818,0.561648
810.405057,0.929545,0.375796
810.438289,0.379545,0.235277
810.471520,0.656818,0.185541
810.504751,0.977273,0.453550
810.537982,0.431818,0.217245
810.571213,0.159091,0.168810
810.604443,0.890909,0.279906
810.637673,0.581818,0.246525
810.670903,0.665909,0.242477
810.704133,0.084091,0.237745
810.737362,-0.139394,0.284996
810.770591,0.113636,0.189019
810.803819,0.093182,0.032201
810.837047,0.661364,0.259238
810.870275,0.694697,0.216495
810.903503,0.786364,0.299940
810.936730,1.090909,0.580289
810.969957,-0.331818,0.075069
811.003184,0.461364,0.364394
811.036410,1.200000,0.406672
811.069636,-0.034091,0.261914
811.102862,0.470455,0.093617
811.136087,0.836364,0.365676
811.169312,0.634091,0.231693
811.202537,0.086364,0.121309
811.235762,0.684091,0.482133
811.268986,0.313636,0.095860
811.302210,0.581818,0.145028
811.335433,0.852273,0.337626
811.368656,1.168182,0.416517
811.401879,0.772727,0.164957
811.435102,0.961364,0.118460
811.468324,2.397727,0.329982
811.501546,3.495455,0.646873
811.534768,1.660606,0.117773
811.567990,2.963636,0.187083
811.601211,1.888636,0.210086
811.634432,2.667424,0.449327
811.667652,5.540909,0.522643
811.700872,12.597727,0.461720
811.734092,27.559091,1.261335
811.767312,53.853788,1.543974
811.800531,91.087879,4.972279
811.833750,58.643182,3.394090
811.866969,16.013636,1.138899
811.900187,6.231818,0.462984
811.933405,2.638636,0.581058
811.966623,1.959091,0.393668
811.999840,1.259091,0.300714
812.033057,0.765909,0.260490
812.066274,0.506818,0.279802
812.099490,1.281818,0.226772
812.132707,-0.320455,0.184003
812.165923,0.229545,0.346580
812.199138,0.363636,0.369778
812.232353,0.463636,0.256547
812.265568,1.547727,0.315121
812.298783,0.318182,0.126377
812.331997,-0.011364,0.121686
812.365211,-0.434848,0.130222
812.398425,0.417424,0.310747
812.431638,0.527273,0.264126
812.464851,0.154545,0.229016
812.498064,0.245455,0.228044
812.531277,0.856818,0.379244
812.564489,0.813636,0.170121
812.597701,-0.268182,0.097991
812.630912,-0.661364,0.222109
812.664123,0.136364,0.149759
