#{
#    "background_file": "Backgrounds\\\\bg_787.999nm_13bin_219st_244en_10.0s_110g_4x_5_seq.txt",
#    "ccd_image_settings": [
#        1,
#        13,
#        1,
#        1600,
#        219,
#        244
#    ],
#    "ccd_temperature": "-87",
#    "cdRatios": {
#        "mean": 0.9313238269392995,
#        "std": 0.007159146129697015
#    },
#    "center_lambda": 786.0,
#    "comments": "",
#    "dark_region": 11.43270275567925,
#    "date": "10/22/20 15:25:53PM",
#    "eff_field": 1.5,
#    "exposure": 10.0,
#    "fel_lambda": "15.0",
#    "fel_pol": "H",
#    "fel_pulses": 43,
#    "fel_pyro_cal": "0.012",
#    "fel_reprate": "1.07",
#    "fel_transmission": "1.0",
#    "fel_transmission_fits": {
#        "A": 1.0,
#        "C": 0.0,
#        "Mu": 0.0
#    },
#    "fieldInt": {
#        "mean": 5735.298759469697,
#        "std": 261.2166564331297
#    },
#    "fieldStrength": {
#        "mean": 34.736109848484844,
#        "std": 0.8111039633441286
#    },
#    "fpTime": {
#        "mean": 1.2228486100881872,
#        "std": 0.0628874471361756
#    },
#    "gain": 110,
#    "grating": 3,
#    "images_in_sequence": [
#        "hsg_820nm_c123_a45_HAna277.txt",
#        "hsg_820nm_c123_a45_HAna278.txt",
#        "hsg_820nm_c123_a45_HAna279.txt",
#        "hsg_820nm_c123_a45_HAna280.txt"
#    ],
#    "nir_lambda": "819.98",
#    "nir_pola": "45",
#    "nir_polg": "0",
#    "nir_power": "100.0",
#    "pulseEnergies": {
#        "mean": 1.7791799242424244,
#        "std": 0.09021170659406941
#    },
#    "pyroVoltage": {
#        "mean": 0.1592761788917138,
#        "std": 0.008960611685926516
#    },
#    "rotatorAngle": 45.0,
#    "sample_Temp": "55",
#    "sample_name": "L001218.C1",
#    "series": "820_Fan",
#    "slits": "60",
#    "spec_step": "",
#    "window_trans": 0.92,
#    "y_max": 2,
#    "y_min": 1
#}
#
#
#
#
#
#
#
#
#
#
#
#
#
#
#
#
#
#
#
#
#
#
#
#
#
#
Wavelength,Signal,error
nm,arb. u.,arb.u.
Wavelength,820_Fan,error
759.194366,-0.000000,0.085038
759.228015,-0.465909,0.033614
759.261663,-0.050000,0.095427
759.295311,0.062121,0.066920
759.328959,-0.043182,0.123037
759.362607,-0.062121,0.037137
759.396254,0.229545,0.049311
759.429901,0.115909,0.019117
759.463548,-0.161364,0.036699
759.497194,-0.206818,0.086565
759.530841,0.138636,0.130375
759.564487,0.250000,0.098412
759.598133,-0.211364,0.041082
759.631779,0.020455,0.109014
759.665424,-0.118182,0.088257
759.699069,0.155303,0.018844
759.732714,0.275000,0.105645
759.766359,-0.022727,0.081153
759.800003,-0.163636,0.050206
759.833648,-0.025000,0.038753
759.867292,-0.140909,0.051975
759.900935,-0.093182,0.032201
759.934579,-0.093182,0.085060
759.968222,0.372727,0.200876
760.001865,-0.190909,0.070857
760.035508,0.186364,0.195547
760.069151,-0.425000,0.152235
760.102793,-0.186364,0.032381
760.136435,-0.043182,0.094551
760.170077,0.186364,0.064403
760.203718,-0.155303,0.037258
760.237360,-0.031061,0.037119
760.271001,0.086364,0.246075
760.304642,0.025000,0.038753
760.338283,-0.027273,0.053203
760.371923,0.454545,0.393648
760.405563,-0.140909,0.025206
760.439203,0.093182,0.064313
760.472843,-0.093182,0.032201
760.506482,-0.022727,0.049533
760.540122,0.000000,0.085038
760.573761,0.431818,0.428064
760.607399,-0.186364,0.055809
760.641038,-0.097727,0.109628
760.674676,-0.155303,0.066988
760.708314,-0.350000,0.023509
760.741952,-0.095455,0.148042
760.775589,-0.186364,0.064403
760.809227,0.115909,0.129978
760.842864,0.256818,0.214370
760.876501,-0.115909,0.037397
760.910137,-0.259091,0.055064
760.943774,0.403788,0.185763
760.977410,0.022727,0.019682
761.011046,-0.002273,0.056625
761.044681,0.000000,0.055670
761.078317,-0.155303,0.018844
761.111952,0.022727,0.158685
761.145587,-0.093182,0.032201
761.179221,-0.155303,0.037258
761.212856,-0.062121,0.066920
761.246490,-0.124242,0.018741
761.280124,0.043182,0.146070
761.313758,-0.045455,0.039365
761.347391,-0.168182,0.133821
761.381024,0.000000,0.032141
761.414657,-0.375000,0.191756
761.448290,-0.217424,0.019117
761.481923,-0.120455,0.111033
761.515555,-0.400000,0.221658
761.549187,0.236364,0.120947
761.582819,0.088636,0.112282
761.616450,-0.165909,0.062521
761.650082,0.000000,0.055670
761.683713,0.248485,0.098333
761.717344,-0.277273,0.053926
761.750974,0.293182,0.283506
761.784605,-0.488636,0.037258
761.818235,0.365909,0.316071
761.851865,0.000000,0.032141
761.885494,-0.143182,0.055519
761.919124,0.070455,0.038081
761.952753,-0.165909,0.077298
761.986382,0.209091,0.049167
762.020010,-0.447727,0.120835
762.053639,-0.025000,0.148872
762.087267,-0.341667,0.037809
762.120895,-0.155303,0.018844
762.154523,0.031061,0.074230
762.188150,0.186364,0.096504
762.221777,-0.211364,0.069188
762.255404,0.156818,0.152979
762.289031,0.047727,0.082282
762.322658,0.000000,0.000000
762.356284,0.045455,0.022727
762.389910,0.327273,0.131583
762.423536,-0.341667,0.049624
762.457161,-0.190909,0.100925
762.490786,0.090909,0.055670
762.524411,0.136364,0.165457
762.558036,0.340909,0.331499
762.591661,0.161364,0.225685
762.625285,-0.279545,0.032679
762.658909,0.031061,0.049101
762.692533,0.065909,0.068588
762.726157,-0.047727,0.075745
762.759780,0.070455,0.113198
762.793403,-0.062121,0.037137
762.827026,0.138636,0.038753
762.860649,0.140909,0.076162
762.894271,-0.341667,0.037809
762.927893,-0.090909,0.078730
762.961515,-0.186364,0.032381
762.995137,-0.070455,0.038081
763.028758,0.045455,0.050820
763.062379,-0.304545,0.062117
763.096000,0.159091,0.113067
763.129621,0.270455,0.293532
763.163241,-0.279545,0.055982
763.196862,0.115909,0.037397
763.230481,-0.050000,0.053926
763.264101,0.062121,0.049114
763.297721,0.341667,0.249760
763.331340,0.000000,0.032141
763.364959,1.127273,0.233461
763.398578,0.536364,0.214794
763.432196,0.684091,0.392141
763.465814,-0.031818,0.200554
763.499432,0.379545,0.371483
763.533050,0.090909,0.160706
763.566668,0.018182,0.370448
763.600285,0.175000,0.319047
763.633902,-0.652273,0.034970
763.667519,-0.140909,0.082666
763.701135,-0.186364,0.003936
763.734752,0.047727,0.040064
763.768368,-0.097727,0.109628
763.801984,-0.095455,0.086334
763.835599,-0.155303,0.037258
763.869215,-0.145455,0.226271
763.902830,0.047727,0.130771
763.936444,0.062121,0.049114
763.970059,-0.045455,0.050820
764.003673,0.155303,0.121729
764.037288,0.002273,0.102165
764.070901,-0.395455,0.037137
764.104515,-0.124242,0.037206
764.138128,0.063636,0.078335
764.171742,-0.095455,0.137176
764.205354,0.072727,0.118705
764.238967,0.361364,0.237288
764.272580,0.065909,0.068588
764.306192,-0.022727,0.049533
764.339804,-0.155303,0.037258
764.373415,-0.031061,0.098195
764.407027,-0.434848,0.067535
764.440638,0.155303,0.098248
764.474249,-0.054545,0.280127
764.507860,-0.031061,0.092786
764.541470,-0.217424,0.067065
764.575080,-0.341667,0.049624
764.608690,0.161364,0.141216
764.642300,-0.070455,0.049832
764.675909,0.062121,0.018603
764.709519,0.479545,0.340080
764.743128,-0.062121,0.018603
764.776736,0.062121,0.129904
764.810345,0.206818,0.102921
764.843953,-0.002273,0.056625
764.877561,-0.140909,0.040846
764.911169,0.045455,0.050820
764.944776,0.020455,0.050858
764.978384,0.000000,0.000000
765.011991,0.000000,0.115887
765.045598,0.340909,0.152035
765.079204,-0.031061,0.066910
765.112810,-0.302273,0.037119
765.146416,0.025000,0.038753
765.180022,-0.004545,0.134129
765.213628,-0.163636,0.021320
765.247233,0.093182,0.085060
765.280838,0.186364,0.064403
765.314443,0.068182,0.067228
765.348048,-0.302273,0.066910
765.381652,-0.604545,0.049114
765.415256,0.138636,0.081652
765.448860,-0.155303,0.049206
765.482463,-0.395455,0.049114
765.516067,0.093182,0.064313
765.549670,-0.248485,0.074412
765.583273,-0.095455,0.035428
765.616875,-0.062121,0.018603
765.650478,0.025000,0.113426
765.684080,-0.248485,0.019285
765.717682,0.020455,0.075404
765.751283,-0.443182,0.076018
765.784885,-0.163636,0.050206
765.818486,0.045455,0.183233
765.852087,-0.248485,0.049376
765.885687,-0.120455,0.071392
765.919288,0.488636,0.188359
765.952888,0.000000,0.032141
765.986488,-0.031061,0.049101
766.020087,-0.124242,0.037206
766.053687,-0.186364,0.055809
766.087286,0.155303,0.049206
766.120885,0.131818,0.216124
766.154484,-0.211364,0.061269
766.188082,-0.434848,0.049948
766.221680,-0.062121,0.018603
766.255278,-0.165909,0.042927
766.288876,-0.045455,0.039365
766.322473,0.322727,0.144510
766.356070,0.204545,0.113067
766.389667,-0.062121,0.037137
766.423264,-0.045455,0.050820
766.456860,0.093182,0.032201
766.490457,0.279545,0.055982
766.524053,0.661364,0.264563
766.557648,-0.062121,0.049114
766.591244,0.211364,0.061269
766.624839,-0.004545,0.067535
766.658434,0.229545,0.182820
766.692029,0.095455,0.057631
766.725623,0.068182,0.067228
766.759217,0.161364,0.058421
766.792811,0.025000,0.038753
766.826405,0.062121,0.049114
766.859999,0.155303,0.112924
766.893592,-0.590152,0.022355
766.927185,0.368182,0.209818
766.960777,0.248485,0.092932
766.994370,-0.513636,0.031079
767.027962,-0.120455,0.063748
767.061554,-0.140909,0.051975
767.095146,0.068182,0.087286
767.128737,-0.115909,0.121771
767.162329,-0.072727,0.041161
767.195920,-0.027273,0.110128
767.229510,-0.070455,0.038081
767.263101,-0.155303,0.049206
767.296691,-0.277273,0.053926
767.330281,-0.155303,0.098248
767.363871,0.025000,0.038753
767.397460,0.088636,0.112282
767.431050,-0.022727,0.019682
767.464639,-0.434848,0.038233
767.498227,-0.093182,0.001968
767.531816,0.270455,0.322060
767.565404,-0.062121,0.037137
767.598992,0.140909,0.025206
767.632580,0.179545,0.216336
767.666168,-0.403788,0.067449
767.699755,0.227273,0.145526
767.733342,0.124242,0.080930
767.766929,0.140909,0.025206
767.800515,0.136364,0.122390
767.834101,0.227273,0.165457
767.867687,0.000000,0.055670
767.901273,-0.279545,0.064553
767.934859,-0.062121,0.018603
767.968444,-0.062121,0.037137
768.002029,0.000000,0.032141
768.035614,-0.279545,0.096604
768.069198,-0.022727,0.019682
768.102783,0.113636,0.059047
768.136367,0.304545,0.089391
768.169950,-0.093182,0.064313
768.203534,-0.093182,0.001968
768.237117,-0.118182,0.099274
768.270700,-0.248485,0.019285
768.304283,-0.100000,0.121373
768.337866,-0.002273,0.056625
768.371448,0.000000,0.032141
768.405030,0.093182,0.140114
768.438612,0.113636,0.133975
768.472193,0.310606,0.103528
768.505775,0.093182,0.055705
768.539356,0.062121,0.049114
768.572936,0.022727,0.103528
768.606517,-0.095455,0.057631
768.640097,0.000000,0.032141
768.673677,0.115909,0.049311
768.707257,-0.231818,0.103727
768.740836,-0.186364,0.064403
768.774416,0.231818,0.148738
768.807995,0.062121,0.112884
768.841574,-0.155303,0.133855
768.875152,-0.124242,0.037206
768.908730,0.062121,0.080898
768.942308,0.115909,0.103422
768.975886,0.045455,0.081944
769.009464,-0.031061,0.049101
769.043041,0.275000,0.266605
769.076618,-0.217424,0.019117
769.110195,0.086364,0.082666
769.143771,-0.072727,0.165894
769.177348,-0.093182,0.001968
769.210924,-0.062121,0.018603
769.244499,-0.124242,0.098228
769.278075,-0.465909,0.056533
769.311650,0.047727,0.075745
769.345225,0.022727,0.074516
769.378800,0.341667,0.214128
769.412375,0.093182,0.085060
769.445949,-0.075000,0.072469
769.479523,0.204545,0.180034
769.513097,0.372727,0.147500
769.546670,-0.186364,0.055809
769.580243,0.000000,0.032141
769.613816,0.138636,0.050347
769.647389,0.154545,0.173503
769.680962,-0.045455,0.050820
769.714534,0.138636,0.081652
769.748106,0.343182,0.195781
769.781678,0.000000,0.000000
769.815249,0.093182,0.085060
769.848820,-0.095455,0.047835
769.882391,0.184091,0.146952
769.915962,0.155303,0.092842
769.949533,0.031061,0.158550
769.983103,-0.062121,0.018603
770.016673,-0.022727,0.067228
770.050243,-0.372727,0.056224
770.083812,0.020455,0.050858
770.117381,-0.045455,0.075378
770.150950,0.413636,0.176089
770.184519,-0.062121,0.037137
770.218088,-0.334091,0.116481
770.251656,-0.188636,0.137622
770.285224,0.063636,0.090568
770.318791,-0.209091,0.018741
770.352359,-0.341667,0.049624
770.385926,-0.331818,0.085854
770.419493,0.113636,0.087286
770.453060,-0.093182,0.085060
770.486626,0.155303,0.049206
770.520192,-0.217424,0.049311
770.553758,0.000000,0.032141
770.587324,0.350000,0.104323
770.620890,0.161364,0.058421
770.654455,0.231818,0.049948
770.688020,-0.341667,0.019911
770.721584,0.095455,0.133357
770.755149,0.065909,0.113880
770.788713,-0.140909,0.099664
770.822277,0.343182,0.190432
770.855841,0.020455,0.075404
770.889404,-0.118182,0.060473
770.922967,0.000000,0.000000
770.956530,0.118182,0.060473
770.990093,-0.031061,0.037119
771.023655,0.040909,0.096504
771.057217,-0.231818,0.145224
771.090779,0.155303,0.018844
771.124341,0.161364,0.017714
771.157902,0.045455,0.039365
771.191463,0.217424,0.049311
771.225024,0.481818,0.333619
771.258585,-0.093182,0.001968
771.292145,0.043182,0.076424
771.325705,0.000000,0.096424
771.359265,0.045455,0.022727
771.392825,0.031061,0.018568
771.426384,-0.256818,0.050654
771.459943,-0.031061,0.037119
771.493502,0.113636,0.133975
771.527061,0.068182,0.117546
771.560619,0.136364,0.075378
771.594177,0.000000,0.032141
771.627735,-0.062121,0.074239
771.661293,0.111364,0.104663
771.694850,-0.045455,0.050820
771.728407,0.322727,0.253519
771.761964,0.543182,0.377168
771.795521,-0.025000,0.196703
771.829077,-0.211364,0.088804
771.862633,0.000000,0.055670
771.896189,0.088636,0.112282
771.929744,-0.234091,0.052654
771.963300,0.000000,0.032141
771.996855,0.072727,0.104841
772.030409,0.015909,0.121899
772.063964,0.204545,0.209227
772.097518,-0.341667,0.037809
772.131072,0.188636,0.103322
772.164626,0.002273,0.072612
772.198180,0.165909,0.127693
772.231733,0.186364,0.085129
772.265286,0.161364,0.086863
772.298839,0.186364,0.140156
772.332391,0.031061,0.080890
772.365943,0.062121,0.049114
772.399495,0.093182,0.032201
772.433047,0.152273,0.229160
772.466598,-0.070455,0.067449
772.500150,0.031061,0.066910
772.533701,-0.025000,0.087751
772.567251,-0.006818,0.106279
772.600802,-0.093182,0.055705
772.634352,-0.186364,0.055809
772.667902,-0.377273,0.148460
772.701452,0.018182,0.089995
772.735001,0.062121,0.037137
772.768550,0.163636,0.067726
772.802099,0.124242,0.049167
772.835648,0.020455,0.039414
772.869196,0.000000,0.032141
772.902744,-0.118182,0.068484
772.936292,0.025000,0.059732
772.969840,0.118182,0.039886
773.003387,-0.186364,0.003936
773.036934,-0.062121,0.049114
773.070481,0.275000,0.169478
773.104028,0.070455,0.049832
773.137574,-0.062121,0.037137
773.171120,-0.300000,0.072869
773.204666,0.000000,0.032141
773.238212,-0.310606,0.067228
773.271757,-0.496970,0.050206
773.305302,0.093182,0.032201
773.338847,0.065909,0.138445
773.372391,0.070455,0.038081
773.405936,0.000000,0.085038
773.439480,-0.163636,0.067726
773.473024,-0.022727,0.019682
773.506567,0.093182,0.085060
773.540110,0.090909,0.242661
773.573653,-0.031061,0.049101
773.607196,0.045455,0.232885
773.640739,0.461364,0.137997
773.674281,0.310606,0.228123
773.707823,-0.325000,0.049624
773.741365,-0.124242,0.092821
773.774906,-0.302273,0.018568
773.808447,0.000000,0.055670
773.841988,-0.027273,0.053203
773.875529,0.209091,0.037206
773.909070,-0.047727,0.023918
773.942610,0.000000,0.032141
773.976150,-0.465909,0.065031
774.009689,0.236364,0.185084
774.043229,0.124242,0.133840
774.076768,0.165909,0.119329
774.110307,-0.155303,0.049206
774.143845,0.031061,0.018568
774.177384,0.279545,0.147408
774.210922,-0.062121,0.074239
774.244460,-0.140909,0.104718
774.277997,0.031061,0.018568
774.311535,0.231818,0.067535
774.345072,-0.025000,0.038753
774.378609,-0.062121,0.037137
774.412145,-0.062121,0.049114
774.445682,-0.002273,0.072612
774.479218,0.093182,0.032201
774.512754,-0.155303,0.037258
774.546289,-0.118182,0.039886
774.579824,-0.124242,0.037206
774.613359,0.375000,0.209766
774.646894,0.124242,0.185586
774.680429,0.186364,0.055809
774.713963,-0.022727,0.019682
774.747497,0.093182,0.001968
774.781031,-0.217424,0.019117
774.814564,-0.022727,0.049533
774.848097,0.062121,0.018603
774.881630,0.259091,0.189973
774.915163,-0.281818,0.038836
774.948696,0.247727,0.139189
774.982228,-0.062121,0.103328
775.015760,0.093182,0.096444
775.049291,0.000000,0.085038
775.082823,-0.072727,0.076331
775.116354,-0.077273,0.146357
775.149885,-0.138636,0.038753
775.183416,-0.184091,0.054770
775.216946,0.115909,0.037397
775.250476,-0.341667,0.019911
775.284006,-0.002273,0.033767
775.317535,0.234091,0.114469
775.351065,-0.325000,0.049624
775.384594,-0.217424,0.067065
775.418123,0.155303,0.177050
775.451651,-0.031061,0.018568
775.485180,0.095455,0.102726
775.518708,-0.211364,0.088804
775.552235,-0.124242,0.049167
775.585763,0.204545,0.188445
775.619290,-0.606818,0.032679
775.652817,0.022727,0.074516
775.686344,0.047727,0.040064
775.719870,0.065909,0.082282
775.753397,-0.093182,0.055705
775.786923,0.138636,0.021651
775.820448,0.150000,0.200039
775.853974,-0.163636,0.074966
775.887499,-0.093182,0.032201
775.921024,0.225000,0.153653
775.954549,0.163636,0.067726
775.988073,0.209091,0.144957
776.021597,-0.186364,0.032381
776.055121,0.175000,0.168653
776.088645,0.304545,0.119118
776.122168,-0.124242,0.037206
776.155691,0.070455,0.038081
776.189214,0.177273,0.150120
776.222737,-0.047727,0.149219
776.256259,-0.190909,0.063147
776.289781,0.140909,0.051975
776.323303,-0.155303,0.049206
776.356824,-0.352273,0.056533
776.390346,0.063636,0.143524
776.423867,0.209091,0.018741
776.457387,-0.310606,0.177142
776.490908,-0.031061,0.018568
776.524428,-0.120455,0.071392
776.557948,0.025000,0.059732
776.591468,0.000000,0.064282
776.624987,-0.248485,0.037483
776.658506,-0.031061,0.066910
776.692025,0.155303,0.049206
776.725544,-0.254545,0.057854
776.759062,0.095455,0.073399
776.792581,-0.279545,0.032679
776.826099,0.302273,0.218782
776.859616,0.143182,0.136302
776.893134,0.047727,0.023918
776.926651,0.031061,0.037119
776.960167,-0.310606,0.067228
776.993684,0.386364,0.308915
777.027200,0.031061,0.080890
777.060716,0.124242,0.098228
777.094232,0.320455,0.173841
777.127748,0.000000,0.032141
777.161263,-0.209091,0.049167
777.194778,-0.031061,0.018568
777.228293,-0.020455,0.088044
777.261807,-0.745455,0.035791
777.295322,0.062121,0.074239
777.328836,0.118182,0.088257
777.362349,0.088636,0.185206
777.395863,0.000000,0.055670
777.429376,-0.163636,0.021320
777.462889,0.000000,0.032141
777.496401,-0.217424,0.019117
777.529914,-0.186364,0.055809
777.563426,-0.093182,0.032201
777.596938,0.018182,0.070711
777.630449,-0.025000,0.087751
777.663961,0.093182,0.001968
777.697472,0.068182,0.067228
777.730983,0.047727,0.051363
777.764493,-0.045455,0.093707
777.798004,0.000000,0.032141
777.831514,-0.186364,0.003936
777.865023,-0.403788,0.020423
777.898533,-0.279545,0.032679
777.932042,0.204545,0.087286
777.965551,0.140909,0.040846
777.999060,-0.124242,0.018741
778.032568,0.188636,0.058685
778.066076,0.345455,0.272803
778.099584,0.513636,0.055064
778.133092,0.113636,0.108402
778.166599,-0.047727,0.040064
778.200107,-0.186364,0.032381
778.233613,-0.186364,0.055809
778.267120,-0.047727,0.040064
778.300626,-0.022727,0.037689
778.334132,-0.025000,0.059732
778.367638,-0.002273,0.085666
778.401144,0.045455,0.081944
778.434649,0.111364,0.104663
778.468154,0.025000,0.059732
778.501659,-0.031061,0.018568
778.535163,-0.002273,0.033767
778.568668,-0.113636,0.108402
778.602172,0.186364,0.140156
778.635675,-0.163636,0.021320
778.669179,0.177273,0.322719
778.702682,-0.031061,0.018568
778.736185,-0.248485,0.081057
778.769688,-0.097727,0.088804
778.803190,0.065909,0.082282
778.836692,0.155303,0.049206
778.870194,-0.186364,0.032381
778.903696,-0.062121,0.018603
778.937197,0.793182,0.437468
778.970698,0.186364,0.128625
779.004199,-0.186364,0.115954
779.037699,0.022727,0.049533
779.071200,-0.186364,0.003936
779.104700,0.000000,0.055670
779.138199,-0.186364,0.032381
779.171699,0.025000,0.067831
779.205198,0.045455,0.075378
779.238697,0.022727,0.067228
779.272196,-0.062121,0.018603
779.305694,-0.118182,0.088257
779.339192,-0.155303,0.018844
779.372690,0.140909,0.025206
779.406188,-0.075000,0.064952
779.439685,0.038636,0.126882
779.473182,-0.186364,0.003936
779.506679,-0.022727,0.049533
779.540176,-0.022727,0.037689
779.573672,0.217424,0.049311
779.607168,0.456818,0.165781
779.640664,-0.072727,0.127110
779.674160,0.181818,0.085038
779.707655,0.165909,0.089672
779.741150,0.186364,0.032381
779.774644,0.000000,0.085038
779.808139,-0.062121,0.049114
779.841633,-0.004545,0.098622
779.875127,0.115909,0.019117
779.908621,0.093182,0.032201
779.942114,0.031061,0.049101
779.975607,0.184091,0.030555
780.009100,0.072727,0.076331
780.042593,0.111364,0.152810
780.076085,-0.093182,0.032201
780.109577,0.025000,0.059732
780.143069,0.045455,0.022727
780.176560,-0.209091,0.066959
780.210052,-0.093182,0.055705
780.243543,-0.161364,0.036699
780.277033,0.047727,0.075745
780.310524,-0.118182,0.099274
780.344014,-0.124242,0.018741
780.377504,-0.138636,0.050347
780.410994,-0.155303,0.018844
780.444483,-0.124242,0.037206
780.477972,0.115909,0.049311
780.511461,0.062121,0.018603
780.544950,0.000000,0.064282
780.578438,0.318182,0.358630
780.611926,-0.031061,0.018568
780.645414,0.025000,0.038753
780.678902,-0.093182,0.064313
780.712389,0.115909,0.049311
780.745876,-0.075000,0.085545
780.779363,0.025000,0.038753
780.812849,-0.184091,0.054770
780.846335,0.152273,0.299507
780.879821,-0.211364,0.061269
780.913307,-0.002273,0.072612
780.946792,-0.045455,0.113636
780.980277,0.022727,0.037689
781.013762,0.136364,0.093707
781.047247,-0.248485,0.081057
781.080731,-0.045455,0.039365
781.114215,-0.070455,0.049832
781.147699,-0.248485,0.049376
781.181183,0.268182,0.396283
781.214666,0.070455,0.130177
781.248149,0.202273,0.226598
781.281632,0.200000,0.271284
781.315114,0.045455,0.039365
781.348596,0.302273,0.049101
781.382078,0.113636,0.059047
781.415560,0.093182,0.064313
781.449041,0.138636,0.098824
781.482522,-0.140909,0.069048
781.516003,0.045455,0.050820
781.549484,-0.279545,0.032679
781.582964,0.343182,0.120706
781.616444,-0.279545,0.055982
781.649924,0.202273,0.231112
781.683404,-0.155303,0.018844
781.716883,0.070455,0.020423
781.750362,0.206818,0.048252
781.783841,-0.062121,0.049114
781.817319,-0.118182,0.088257
781.850797,-0.072727,0.099793
781.884275,0.186364,0.085129
781.917753,0.124242,0.018741
781.951230,0.136364,0.145526
781.984707,0.000000,0.055670
782.018184,-0.020455,0.109014
782.051661,-0.068182,0.037689
782.085137,0.043182,0.123037
782.118613,0.138636,0.021651
782.152089,0.093182,0.001968
782.185564,-0.217424,0.074369
782.219040,-0.124242,0.037206
782.252515,0.025000,0.038753
782.285989,0.047727,0.051363
782.319464,-0.434848,0.049948
782.352938,0.047727,0.040064
782.386412,-0.217424,0.019117
782.419885,0.279545,0.195597
782.453359,-0.050000,0.123712
782.486832,-0.031061,0.066910
782.520305,-0.234091,0.052654
782.553777,-0.022727,0.081153
782.587249,-0.217424,0.112970
782.620721,0.234091,0.052654
782.654193,0.031061,0.080890
782.687665,-0.300000,0.085884
782.721136,0.209091,0.080930
782.754607,-0.145455,0.126785
782.788077,-0.002273,0.056625
782.821548,0.045455,0.050820
782.855018,0.272727,0.263087
782.888488,0.156818,0.109722
782.921957,0.025000,0.038753
782.955427,-0.045455,0.068182
782.988896,-0.211364,0.041082
783.022365,0.022727,0.103528
783.055833,0.431818,0.323614
783.089301,-0.138636,0.038753
783.122769,-0.217424,0.037397
783.156237,0.124242,0.037206
783.189704,-0.231818,0.020706
783.223172,0.031061,0.037119
783.256638,-0.186364,0.064403
783.290105,0.254545,0.148129
783.323571,0.136364,0.075378
783.357037,-0.093182,0.032201
783.390503,-0.186364,0.003936
783.423969,-0.062121,0.018603
783.457434,0.090909,0.160706
783.490899,0.565909,0.520354
783.524364,0.134091,0.083529
783.557828,-0.124242,0.037206
783.591292,0.188636,0.133816
783.624756,-0.279545,0.085242
783.658220,-0.236364,0.097277
783.691683,-0.062121,0.018603
783.725146,0.161364,0.129779
783.758609,-0.045455,0.050820
783.792072,0.070455,0.038081
783.825534,0.025000,0.038753
783.858996,-0.120455,0.071392
783.892458,-0.165909,0.042927
783.925919,0.229545,0.092897
783.959381,0.315909,0.354944
783.992842,-0.093182,0.055705
784.026302,-0.124242,0.074273
784.059763,0.000000,0.000000
784.093223,-0.070455,0.038081
784.126683,-0.118182,0.039886
784.160142,0.386364,0.308915
784.193601,-0.186364,0.055809
784.227060,0.136364,0.093707
784.260519,-0.115909,0.019117
784.293978,0.155303,0.092842
784.327436,0.020455,0.060163
784.360894,0.025000,0.067831
784.394352,-0.004545,0.134129
784.427809,-0.072727,0.041161
784.461266,-0.190909,0.160255
784.494723,-0.186364,0.003936
784.528180,-0.161364,0.036699
784.561636,-0.093182,0.032201
784.595092,0.297727,0.102418
784.628548,0.140909,0.051975
784.662003,0.113636,0.103528
784.695458,0.140909,0.145933
784.728913,0.124242,0.129924
784.762368,0.136364,0.165457
784.795823,-0.186364,0.003936
784.829277,-0.186364,0.003936
784.862731,-0.045455,0.104149
784.896184,-0.115909,0.019117
784.929637,-0.093182,0.064313
784.963091,-0.022727,0.067228
784.996543,0.184091,0.189888
785.029996,0.043182,0.052359
785.063448,0.322727,0.225482
785.096900,-0.115909,0.067065
785.130352,-0.062121,0.074239
785.163803,-0.004545,0.191274
785.197254,0.322727,0.121181
785.230705,0.206818,0.073671
785.264156,0.047727,0.159265
785.297606,0.134091,0.095095
785.331056,0.031061,0.018568
785.364506,0.031061,0.080890
785.397955,-0.068182,0.087286
785.431405,0.095455,0.073399
785.464854,0.093182,0.032201
785.498302,-0.062121,0.037137
785.531751,0.152273,0.139486
785.565199,0.729545,0.371094
785.598647,-0.138636,0.021651
785.632094,-0.045455,0.050820
785.665542,0.090909,0.106600
785.698989,-0.161364,0.058421
785.732436,-0.163636,0.038569
785.765882,-0.155303,0.018844
785.799328,-0.248485,0.049376
785.832774,-0.325000,0.019911
785.866220,0.279545,0.085242
785.899665,-0.124242,0.066959
785.933111,0.279545,0.085242
785.966555,0.047727,0.068588
786.000000,-0.025000,0.038753
786.033444,-0.047727,0.068588
786.066888,-0.188636,0.087041
786.100332,-0.217424,0.037397
786.133776,0.031061,0.066910
786.167219,0.155303,0.080953
786.200662,-0.020455,0.075404
786.234104,-0.093182,0.001968
786.267547,-0.248485,0.049376
786.300989,-0.093182,0.055705
786.334431,0.134091,0.095095
786.367872,-0.248485,0.074412
786.401314,0.136364,0.171587
786.434755,0.300000,0.154612
786.468196,-0.115909,0.019117
786.501636,-0.070455,0.020423
786.535076,0.070455,0.049832
786.568516,0.031061,0.018568
786.601956,0.088636,0.112282
786.635395,0.436364,0.150206
786.668834,-0.093182,0.111358
786.702273,0.062121,0.037137
786.735712,-0.062121,0.018603
786.769150,0.047727,0.094003
786.802588,-0.186364,0.003936
786.836026,0.231818,0.122031
786.869463,-0.248485,0.049376
786.902900,0.031061,0.018568
786.936337,0.434091,0.374833
786.969774,0.341667,0.098458
787.003210,0.227273,0.113636
787.036646,0.248485,0.098333
787.070082,-0.093182,0.032201
787.103518,0.340909,0.148599
787.136953,0.161364,0.066679
787.170388,0.093182,0.001968
787.203823,-0.279545,0.055982
787.237257,-0.031061,0.018568
787.270691,0.093182,0.111358
787.304125,-0.186364,0.064403
787.337559,0.068182,0.037689
787.370992,0.070455,0.020423
787.404425,-0.118182,0.088257
787.437858,0.093182,0.055705
787.471290,0.002273,0.072612
787.504723,-0.070455,0.074715
787.538155,-0.143182,0.078623
787.571586,0.181818,0.213201
787.605018,0.281818,0.087787
787.638449,0.256818,0.098981
787.671880,-0.093182,0.032201
787.705310,-0.020455,0.134471
787.738741,-0.155303,0.049206
787.772171,-0.184091,0.054770
787.805600,0.031061,0.018568
787.839030,0.134091,0.219771
787.872459,-0.186364,0.096504
787.905888,0.068182,0.037689
787.939317,-0.138636,0.067831
787.972745,-0.068182,0.087286
788.006173,0.022727,0.019682
788.039601,-0.031061,0.037119
788.073028,-0.138636,0.021651
788.106456,-0.050000,0.053926
788.139883,0.068182,0.087286
788.173309,0.186364,0.085129
788.206736,0.000000,0.000000
788.240162,0.031061,0.049101
788.273588,0.115909,0.081017
788.307013,-0.118182,0.039886
788.340439,0.000000,0.000000
788.373864,-0.281818,0.075103
788.407288,0.124242,0.037206
788.440713,0.297727,0.112051
788.474137,0.020455,0.293708
788.507561,-0.047727,0.040064
788.540985,-0.093182,0.055705
788.574408,-0.161364,0.058421
788.607831,0.031061,0.049101
788.641254,0.000000,0.032141
788.674677,-0.372727,0.085401
788.708099,-0.002273,0.056625
788.741521,-0.095455,0.116841
788.774943,-0.047727,0.051363
788.808364,0.390909,0.101334
788.841785,-0.031061,0.066910
788.875206,0.279545,0.195597
788.908627,0.304545,0.181064
788.942047,0.031061,0.049101
788.975467,0.086364,0.162671
789.008887,0.022727,0.019682
789.042306,-0.372727,0.085401
789.075726,-0.093182,0.096444
789.109145,0.000000,0.000000
789.142563,0.000000,0.085038
789.175982,0.047727,0.068588
789.209400,0.113636,0.037689
789.242817,0.093182,0.032201
789.276235,0.229545,0.145006
789.309652,0.000000,0.064282
789.343069,0.043182,0.052359
789.376486,0.025000,0.038753
789.409902,0.093182,0.032201
789.443319,-0.325000,0.081208
789.476735,0.290909,0.271665
789.510150,0.093182,0.055705
789.543565,0.161364,0.098037
789.576980,-0.186364,0.003936
789.610395,0.227273,0.104149
789.643810,0.068182,0.037689
789.677224,-0.093182,0.085060
789.710638,-0.070455,0.145184
789.744052,-0.302273,0.037119
789.777465,0.217424,0.121771
789.810878,0.031061,0.112878
789.844291,-0.022727,0.067228
789.877703,-0.184091,0.054770
789.911116,0.179545,0.289813
789.944528,-0.248485,0.049376
789.977939,-0.045455,0.104149
790.011351,-0.115909,0.081017
790.044762,0.045455,0.122390
790.078173,0.025000,0.038753
790.111583,-0.029545,0.080249
790.144994,0.136364,0.122390
790.178404,0.031061,0.018568
790.211813,0.000000,0.085038
790.245223,0.045455,0.050820
790.278632,0.070455,0.038081
790.312041,0.090909,0.032141
790.345450,-0.052273,0.086744
790.378858,0.093182,0.064313
790.412266,-0.022727,0.067228
790.445674,0.070455,0.038081
790.479081,0.217424,0.067065
790.512488,0.322727,0.092123
790.545895,0.250000,0.108402
790.579302,0.047727,0.068588
790.612708,0.229545,0.103422
790.646115,0.297727,0.140666
790.679520,0.570455,0.200345
790.712926,1.231818,0.567012
790.746331,0.772727,0.349882
790.779736,0.247727,0.178243
790.813141,0.393182,0.238439
790.846545,0.022727,0.049533
790.879949,0.155303,0.037258
790.913353,0.062121,0.018603
790.946757,-0.807576,0.051975
790.980160,-0.559091,0.065358
791.013563,0.134091,0.119199
791.046966,0.000000,0.032141
791.080368,-0.279545,0.032679
791.113771,0.247727,0.274151
791.147173,-0.000000,0.085038
791.180574,-0.186364,0.032381
791.213976,0.070455,0.113198
791.247377,0.431818,0.133975
791.280777,0.043182,0.069337
791.314178,-0.556818,0.068888
791.347578,-0.393182,0.072112
791.380978,-0.281818,0.038836
791.414378,0.229545,0.151963
791.447777,0.403788,0.185763
791.481176,0.186364,0.170121
791.514575,0.217424,0.049311
791.547973,-0.097727,0.076289
791.581372,-0.090909,0.055670
791.614770,-0.186364,0.003936
791.648167,-0.124242,0.037206
791.681565,-0.165909,0.083714
791.714962,-0.093182,0.064313
791.748359,-0.186364,0.032381
791.781755,0.118182,0.039886
791.815152,-0.124242,0.049167
791.848548,-0.186364,0.032381
791.881943,-0.062121,0.037137
791.915339,0.181818,0.085038
791.948734,0.434848,0.145224
791.982129,-0.124242,0.018741
792.015523,0.065909,0.113880
792.048918,-0.186364,0.064403
792.082312,-0.093182,0.032201
792.115705,-0.093182,0.032201
792.149099,-0.188636,0.080890
792.182492,-0.022727,0.037689
792.215885,-0.062121,0.018603
792.249278,-0.022727,0.049533
792.282670,-0.093182,0.032201
792.316062,0.209091,0.133840
792.349454,0.025000,0.067831
792.382845,-0.062121,0.049114
792.416236,0.138636,0.081652
792.449627,-0.031061,0.049101
792.483018,0.384091,0.521148
792.516408,-0.090909,0.132522
792.549798,1.027273,0.237802
792.583188,0.776515,0.152776
792.616578,0.884091,0.315498
792.649967,0.070455,0.020423
792.683356,0.015909,0.158713
792.716745,0.327273,0.325817
792.750133,-0.259091,0.210605
792.783521,0.063636,0.197975
792.816909,-0.534091,0.065031
792.850296,0.031061,0.018568
792.883684,-0.027273,0.083443
792.917071,-0.124242,0.074273
792.950457,0.155303,0.080953
792.983844,-0.025000,0.087751
793.017230,0.090909,0.045455
793.050616,0.025000,0.087751
793.084001,-0.279545,0.032679
793.117386,0.045455,0.022727
793.150771,0.031061,0.049101
793.184156,-0.155303,0.018844
793.217541,0.086364,0.104718
793.250925,0.115909,0.081017
793.284309,-0.022727,0.067228
793.317692,-0.006818,0.143502
793.351075,0.070455,0.049832
793.384458,0.738636,0.506766
793.417841,0.136364,0.068182
793.451223,0.062121,0.049114
793.484606,0.186364,0.064403
793.517988,0.134091,0.277894
793.551369,0.031061,0.018568
793.584750,0.065909,0.088337
793.618131,-0.206818,0.086565
793.651512,-0.279545,0.032679
793.684893,0.063636,0.120003
793.718273,0.109091,0.160835
793.751653,-0.004545,0.059396
793.785032,0.161364,0.232450
793.818411,0.000000,0.160706
793.851790,-0.161364,0.066679
793.885169,0.031061,0.049101
793.918548,0.415909,0.213404
793.951926,0.452273,0.371511
793.985304,0.186364,0.064403
794.018681,-0.186364,0.032381
794.052059,-0.031061,0.018568
794.085436,-0.070455,0.049832
794.118812,0.000000,0.085038
794.152189,-0.025000,0.038753
794.185565,0.272727,0.140100
794.218941,-0.034091,0.197724
794.252317,0.227273,0.165457
794.285692,0.159091,0.284545
794.319067,0.113636,0.081153
794.352442,0.093182,0.064313
794.385816,0.403788,0.134086
794.419190,1.242424,0.154144
794.452564,1.225000,0.417655
794.485938,2.634091,0.342728
794.519311,0.590152,0.068059
794.552684,0.000000,0.032141
794.586057,0.036364,0.193809
794.619429,0.318182,0.199431
794.652802,-0.395455,0.037137
794.686173,0.365909,0.114559
794.719545,0.477273,0.310583
794.752916,0.277273,0.083906
794.786287,0.320455,0.097774
794.819658,0.031061,0.037119
794.853029,0.036364,0.236975
794.886399,-0.163636,0.122137
794.919769,0.070455,0.067449
794.953138,0.062121,0.018603
794.986508,0.159091,0.152035
795.019877,0.547727,0.243731
795.053245,-0.155303,0.018844
795.086614,0.138636,0.081652
795.119982,-0.124242,0.037206
795.153350,0.115909,0.037397
795.186718,0.063636,0.220208
795.220085,-0.231818,0.093237
795.253452,-0.302273,0.049101
795.286819,0.338636,0.231447
795.320185,0.275000,0.105645
795.353551,-0.515909,0.076963
795.386917,0.186364,0.032381
795.420283,-0.310606,0.037689
795.453648,0.022727,0.067228
795.487013,0.138636,0.067831
795.520378,0.188636,0.058685
795.553742,0.031061,0.018568
795.587107,0.090909,0.106600
795.620471,-0.124242,0.066959
795.653834,-0.124242,0.103353
795.687197,0.088636,0.125325
795.720560,0.429545,0.454493
795.753923,-0.138636,0.075060
795.787286,0.227273,0.145526
795.820648,0.438636,0.272507
795.854010,0.350000,0.149154
795.887371,-0.070455,0.038081
795.920733,-0.155303,0.018844
795.954094,-0.124242,0.018741
795.987454,0.350000,0.093900
796.020815,-0.062121,0.074239
796.054175,-0.370455,0.053142
796.087535,0.343182,0.271025
796.120894,0.522727,0.479298
796.154254,0.206818,0.073671
796.187613,0.488636,0.228053
796.220971,0.388636,0.140298
796.254330,1.065909,0.152641
796.287688,1.739394,0.625425
796.321046,3.323485,0.520354
796.354403,5.156061,0.807899
796.387761,3.997727,0.606613
796.421118,1.534091,0.483823
796.454474,0.031061,0.074230
796.487831,0.186364,0.055809
796.521187,-0.006818,0.106279
796.554543,0.138636,0.148872
796.587898,0.272727,0.115887
796.621254,-0.062121,0.037137
796.654609,0.124242,0.214023
796.687963,-0.004545,0.162034
796.721318,0.350000,0.104323
796.754672,0.138636,0.113426
796.788026,0.234091,0.114469
796.821379,0.043182,0.052359
796.854732,0.156818,0.197227
796.888085,-0.031061,0.037119
796.921438,0.047727,0.023918
796.954790,0.093182,0.032201
796.988142,-0.070455,0.038081
797.021494,0.177273,0.224563
797.054846,-0.022727,0.049533
797.088197,0.211364,0.118678
797.121548,-0.140909,0.040846
797.154899,-0.097727,0.069188
797.188249,-0.093182,0.032201
797.221599,0.347727,0.116703
797.254949,0.900758,0.214851
797.288298,0.322727,0.198691
797.321648,0.000000,0.064282
797.354996,-0.050000,0.172533
797.388345,0.581818,0.249711
797.421693,-0.124242,0.049167
797.455041,-0.621212,0.075378
797.488389,0.395455,0.177025
797.521737,0.065909,0.068588
797.555084,-0.093182,0.085060
797.588431,-0.068182,0.037689
797.621777,-0.124242,0.037206
797.655124,0.124242,0.112907
797.688470,0.248485,0.206706
797.721815,-0.327273,0.053397
797.755161,0.155303,0.121729
797.788506,0.254545,0.086483
797.821851,0.040909,0.120326
797.855196,-0.155303,0.092842
797.888540,-0.047727,0.082282
797.921884,-0.350000,0.039821
797.955228,-0.140909,0.094339
797.988571,0.786364,0.274868
798.021914,0.436364,0.189715
798.055257,0.248485,0.081057
798.088599,0.465909,0.195755
798.121942,0.465909,0.096925
798.155284,0.431818,0.161907
798.188625,2.174242,0.201685
798.221967,2.857576,0.646718
798.255308,4.618182,0.566124
798.288649,4.068939,0.445922
798.321989,0.869697,0.273974
798.355329,0.347727,0.362475
798.388669,0.204545,0.209227
798.422009,0.131818,0.164565
798.455348,0.248485,0.177098
798.488687,0.372727,0.056224
798.522026,0.440909,0.170485
798.555365,0.090909,0.101639
798.588703,-0.440909,0.085854
798.622041,0.252273,0.170693
798.655378,0.124242,0.066959
798.688716,0.045455,0.068182
798.722053,0.015909,0.134009
798.755389,0.270455,0.171297
798.788726,0.186364,0.147342
798.822062,0.163636,0.093376
798.855398,0.156818,0.244048
798.888733,0.093182,0.085060
798.922069,-0.217424,0.019117
798.955404,-0.090909,0.055670
798.988738,-0.217424,0.019117
799.022073,0.341667,0.291731
799.055407,0.000000,0.055670
799.088741,0.279545,0.055982
799.122074,0.638636,0.295286
799.155408,0.277273,0.244390
799.188741,0.590152,0.177458
799.222073,0.372727,0.167196
799.255406,-0.115909,0.037397
799.288738,0.211364,0.142418
799.322069,0.184091,0.078096
799.355401,0.070455,0.038081
799.388732,0.745455,0.057854
799.422063,-0.327273,0.028020
799.455394,0.111364,0.088629
799.488724,0.047727,0.134663
799.522054,0.186364,0.147342
799.555384,0.522727,0.280891
799.588713,0.179545,0.137509
799.622042,0.497727,0.329591
799.655371,0.031061,0.018568
799.688700,0.031061,0.066910
799.722028,0.279545,0.055982
799.755356,0.627273,0.251154
799.788684,0.420455,0.131911
799.822011,0.406818,0.289367
799.855338,-0.095455,0.116841
799.888665,-0.093182,0.032201
799.921992,0.615909,0.256735
799.955318,0.403788,0.130177
799.988644,0.248485,0.037483
800.021969,0.393182,0.124622
800.055295,0.931818,0.148599
800.088620,4.224242,0.428866
800.121945,6.950000,1.242255
800.155269,13.884091,0.300230
800.188593,13.247727,1.032055
800.221917,3.478788,0.563673
800.255241,1.180303,0.227125
800.288564,0.310606,0.049533
800.321887,0.341667,0.121899
800.355210,-0.093182,0.085060
800.388532,0.040909,0.085129
800.421854,0.217424,0.188386
800.455176,0.715909,0.164184
800.488498,0.229545,0.182820
800.521819,0.506818,0.169417
800.555140,0.325000,0.081208
800.588461,0.159091,0.137777
800.621781,0.093182,0.140114
800.655101,0.327273,0.100412
800.688421,0.604545,0.144939
800.721740,0.177273,0.186903
800.755060,-0.025000,0.038753
800.788379,-0.052273,0.097932
800.821697,0.093182,0.064313
800.855015,0.118182,0.088257
800.888334,0.118182,0.039886
800.921651,-0.209091,0.098228
800.954969,0.070455,0.049832
800.988286,0.372727,0.033091
801.021603,0.113636,0.087286
801.054919,0.415909,0.244957
801.088235,-0.120455,0.084634
801.121551,-0.217424,0.037397
801.154867,-0.093182,0.140114
801.188183,0.138636,0.093452
801.221498,-0.211364,0.149496
801.254812,0.206818,0.125531
801.288127,0.025000,0.038753
801.321441,0.155303,0.080953
801.354755,0.500000,0.152459
801.388069,0.438636,0.187093
801.421382,0.672727,0.028020
801.454695,0.840909,0.141476
801.488008,0.686364,0.211779
801.521320,0.031061,0.158550
801.554632,0.217424,0.129978
801.587944,0.443182,0.122785
801.621256,0.277273,0.029016
801.654567,0.277273,0.083906
801.687878,-0.163636,0.038569
801.721189,0.456818,0.104663
801.754499,0.229545,0.151963
801.787809,0.640909,0.296354
801.821119,0.040909,0.140156
801.854428,0.236364,0.176514
801.887737,0.575000,0.223685
801.921046,0.496970,0.067726
801.954355,1.404545,0.508009
801.987663,2.546970,0.554038
802.020971,6.584848,0.916481
802.054279,16.648485,1.401018
802.087586,26.845455,0.621698
802.120894,12.793182,0.490987
802.154200,3.740909,0.604678
802.187507,0.993939,0.178261
802.220813,0.481818,0.146375
802.254119,0.295455,0.310583
802.287425,0.295455,0.230377
802.320730,0.379545,0.310930
802.354035,0.155303,0.092842
802.387340,0.465909,0.116304
802.420644,0.025000,0.148872
802.453949,-0.011364,0.180660
802.487252,-0.093182,0.064313
802.520556,0.209091,0.098228
802.553859,0.272727,0.140100
802.587162,0.559091,0.334230
802.620465,0.254545,0.129526
802.653767,0.209091,0.098228
802.687069,-0.022727,0.074516
802.720371,-0.004545,0.093237
802.753673,-0.093182,0.085060
802.786974,-0.062121,0.103328
802.820275,0.155303,0.037258
802.853576,0.186364,0.096504
802.886876,-0.093182,0.032201
802.920176,0.217424,0.049311
802.953476,0.577273,0.310849
802.986775,0.413636,0.090994
803.020074,0.093182,0.085060
803.053373,0.695455,0.062117
803.086672,0.248485,0.165019
803.119970,0.063636,0.175869
803.153268,-0.248485,0.037483
803.186565,-0.209091,0.121713
803.219863,0.131818,0.173726
803.253160,0.186364,0.111410
803.286457,0.538636,0.152235
803.319753,0.279545,0.210847
803.353049,0.225000,0.200345
803.386345,0.031061,0.074230
803.419641,0.272727,0.167011
803.452936,0.293182,0.172499
803.486231,0.434848,0.152171
803.519525,0.370455,0.410016
803.552820,0.559091,0.116487
803.586114,0.115909,0.019117
803.619408,0.434848,0.067535
803.652701,0.621212,0.039365
803.685994,0.186364,0.003936
803.719287,0.475000,0.451128
803.752580,0.679545,0.345206
803.785872,0.279545,0.085242
803.819164,0.504545,0.119464
803.852456,2.590909,0.737499
803.885747,3.829545,0.824843
803.919038,5.541667,0.937810
803.952329,11.952273,0.768339
803.985620,24.062879,1.471622
804.018910,37.540909,1.343801
804.052200,16.025000,0.753473
804.085489,6.984091,1.462967
804.118779,0.709091,0.353904
804.152068,-0.310606,0.049533
804.185357,-0.217424,0.074369
804.218645,0.575000,0.209372
804.251933,0.140909,0.051975
804.285221,0.281818,0.103951
804.318508,0.186364,0.200760
804.351796,1.077273,0.300370
804.385083,0.217424,0.129978
804.418369,0.310606,0.145081
804.451656,0.186364,0.167057
804.484942,-0.062121,0.049114
804.518227,0.690909,0.154679
804.551513,0.436364,0.084060
804.584798,0.552273,0.185011
804.618083,0.479545,0.308210
804.651367,1.004545,0.564273
804.684652,-0.496970,0.098753
804.717936,0.568182,0.315533
804.751219,0.600000,0.216947
804.784503,0.124242,0.018741
804.817786,-0.004545,0.093237
804.851068,0.279545,0.179052
804.884351,0.434848,0.346790
804.917633,1.227273,0.614478
804.950915,-0.093182,0.055705
804.984196,0.683333,0.149154
805.017478,0.438636,0.189834
805.050759,-0.062121,0.049114
805.084039,1.009091,0.386043
805.117320,0.438636,0.252843
805.150600,0.222727,0.279120
805.183879,0.654545,0.187524
805.217159,0.436364,0.189715
805.250438,0.062121,0.018603
805.283717,0.863636,0.199431
805.316995,0.090909,0.355011
805.350274,0.993939,0.053397
805.383552,0.683333,0.186128
805.416829,0.229545,0.145006
805.450107,1.036364,0.443456
805.483384,0.413636,0.257160
805.516660,0.559091,0.065358
805.549937,0.565909,0.301689
805.583213,0.545455,0.299793
805.616489,0.590152,0.022355
805.649764,0.590152,0.159038
805.683040,1.366667,0.085884
805.716315,2.034091,0.378726
805.749589,1.681818,0.832265
805.782864,1.273485,0.400198
805.816138,3.261364,0.109440
805.849411,9.509091,0.387512
805.882685,27.426515,1.619612
805.915958,50.815152,1.519685
805.949231,88.626515,1.319358
805.982504,53.629545,1.786495
806.015776,13.578030,1.138046
806.049048,4.006818,0.454470
806.082319,1.925758,0.324507
806.115591,0.434848,0.182993
806.148862,1.188636,0.263742
806.182133,1.129545,0.378781
806.215403,0.714394,0.277522
806.248673,0.725000,0.105645
806.281943,0.434848,0.148738
806.315213,0.186364,0.055809
806.348482,0.163636,0.134226
806.381751,0.900758,0.330420
806.415019,0.310606,0.093015
806.448288,0.047727,0.075745
806.481556,0.538636,0.249863
806.514823,0.406818,0.184788
806.548091,0.420455,0.215235
806.581358,0.536364,0.197243
806.614625,0.640909,0.301537
806.647891,0.995455,0.387585
806.681158,1.125000,0.405723
806.714424,0.124242,0.066959
806.747689,-0.068182,0.037689
806.780955,0.179545,0.103172
806.814220,0.600000,0.226271
806.847484,0.911364,0.211263
806.880749,0.934091,0.254208
806.914013,0.152273,0.219959
806.947277,0.331818,0.239522
806.980540,0.295455,0.158685
807.013803,0.124242,0.121713
807.047066,0.496970,0.148825
807.080329,0.454545,0.187414
807.113591,0.186364,0.032381
807.146853,0.372727,0.128806
807.180115,0.956818,0.246156
807.213376,0.340909,0.148599
807.246637,1.100000,0.549098
807.279898,0.504545,0.224563
807.313159,0.217424,0.098300
807.346419,0.272727,0.124482
807.379679,0.450000,0.230466
807.412938,0.155303,0.098248
807.446198,0.775000,0.202652
807.479457,0.993939,0.146445
807.512715,0.900758,0.041706
807.545974,1.370455,0.602537
807.579232,1.379545,0.202218
807.612490,1.366667,0.291299
807.645747,1.335606,0.376346
807.679004,1.584091,0.558632
807.712261,1.581818,0.507953
807.745518,3.416667,0.479298
807.778774,11.896212,0.371302
807.812030,40.050000,1.238173
807.845285,83.242424,3.450057
807.878541,149.650000,3.219442
807.911796,160.252273,2.128250
807.945051,45.068182,2.537808
807.978305,12.393182,1.208755
808.011559,3.990152,0.280883
808.044813,2.234091,0.384868
808.078066,1.708333,0.545070
808.111320,1.345455,0.280274
808.144573,1.472727,0.262773
808.177825,0.711364,0.244746
808.211078,1.390909,0.423899
808.244330,1.070455,0.414614
808.277581,0.643182,0.290756
808.310833,0.404545,0.377321
808.344084,0.496970,0.074966
808.377335,0.120455,0.303107
808.410585,0.962879,0.432098
808.443835,0.750000,0.336141
808.477085,1.025000,0.162158
808.510335,-0.310606,0.049533
808.543584,1.502273,0.388435
808.576833,0.776515,0.344067
808.610082,0.000000,0.160706
808.643330,0.248485,0.121798
808.676578,0.807576,0.189101
808.709826,0.279545,0.128700
808.743073,0.229545,0.234771
808.776320,1.229545,0.471561
808.809567,0.668182,0.232074
808.842814,1.331818,0.203622
808.876060,0.776515,0.189043
808.909306,0.545455,0.255113
808.942552,0.579545,0.115188
808.975797,1.081818,0.147500
809.009042,1.125000,0.397362
809.042287,0.776515,0.241795
809.075531,1.031818,0.355789
809.108775,1.945455,0.475603
809.142019,0.931818,0.211681
809.175262,1.180303,0.353458
809.208506,1.093182,0.085060
809.241748,0.931818,0.450407
809.274991,0.947727,0.173930
809.308233,1.397727,0.336860
809.341475,1.827273,0.565046
809.374717,1.027273,0.214986
809.407958,0.683333,0.228485
809.441199,0.652273,0.223107
809.474440,-0.452273,0.194192
809.507680,-1.340909,0.391510
809.540921,0.031061,0.329872
809.574160,-0.714394,0.134663
809.607400,1.815909,0.473474
809.640639,2.081061,0.137133
809.673878,5.950000,0.803283
809.707117,9.784091,1.248695
809.740355,24.848485,1.198742
809.773593,49.225000,0.643430
809.806831,117.502273,3.249913
809.840068,244.260606,6.097524
809.873305,183.284091,4.289028
809.906542,46.959091,1.022785
809.939778,10.865909,0.811687
809.973015,7.534091,1.050184
810.006250,5.572727,1.091922
810.039486,3.488636,0.074299
810.072721,3.604545,0.343678
810.105956,2.231818,0.431716
810.139191,2.578030,0.764126
810.172425,1.397727,0.115188
810.205659,1.335606,0.195781
810.238893,1.956818,0.559159
810.272126,1.343182,0.635636
810.305359,1.690909,0.442056
810.338592,2.090909,0.407826
810.371825,2.259091,0.878776
810.405057,1.770455,0.388967
810.438289,1.894697,0.514143
810.471520,1.118182,0.212083
810.504751,2.106818,0.813740
810.537982,0.525000,0.192589
810.571213,0.931818,0.326791
810.604443,0.310606,0.049533
810.637673,1.229545,0.291678
810.670903,0.590152,0.325379
810.704133,0.900000,0.227863
810.737362,1.070455,0.396789
810.770591,1.252273,0.158126
810.803819,1.086364,0.297397
810.837047,1.886364,0.291716
810.870275,1.493182,0.329481
810.903503,1.400000,0.485917
810.936730,1.211364,0.290400
810.969957,0.154545,0.332689
811.003184,1.259091,0.236047
811.036410,1.225000,0.465608
811.069636,1.518182,0.475364
811.102862,0.248485,0.037483
811.136087,2.463636,0.318604
811.169312,1.572727,0.441331
811.202537,1.134091,0.369070
811.235762,1.325000,0.241346
811.268986,1.159091,0.505522
811.302210,0.293182,0.290703
811.335433,1.411364,0.738656
811.368656,1.904545,0.353867
811.401879,1.490909,0.257049
811.435102,3.851515,0.410024
811.468324,4.581818,0.468380
811.501546,4.090909,0.055670
811.534768,4.227273,0.688227
811.567990,4.111364,0.412491
811.601211,4.628030,0.454072
811.634432,5.621970,0.447657
811.667652,9.597727,0.887693
811.700872,28.113636,1.533838
811.734092,73.818182,1.184001
811.767312,117.378030,4.864346
811.800531,225.748485,5.410452
811.833750,195.743182,3.362083
811.866969,58.843182,3.270936
811.900187,18.729545,0.885200
811.933405,9.535606,0.870549
811.966623,4.815909,1.202702
811.999840,2.775000,0.313033
812.033057,2.081061,0.080055
812.066274,2.740909,0.495783
812.099490,1.822727,0.342594
812.132707,1.445455,0.501300
812.165923,2.345455,0.415157
812.199138,1.677273,0.380592
812.232353,0.906818,0.453412
812.265568,2.913636,0.168902
812.298783,2.981818,0.258812
812.331997,2.620455,0.776052
812.365211,1.584091,0.500087
812.398425,1.428788,0.552245
812.431638,1.273485,0.179052
812.464851,1.352273,0.261302
812.498064,0.900758,0.153080
812.531277,0.900758,0.214851
812.564489,1.338636,0.160235
812.597701,0.590152,0.113562
812.630912,1.700000,0.570939
812.664123,0.900758,0.277764
