#{
#    "background_file": "Backgrounds\\\\bg_787.999nm_16bin_197st_244en_10.0s_110g_4x_1_seq.txt",
#    "ccd_image_settings": [
#        1,
#        16,
#        1,
#        1600,
#        197,
#        244
#    ],
#    "ccd_temperature": "-88",
#    "cdRatios": {
#        "mean": 0.9291755717509189,
#        "std": 0.006608812069235381
#    },
#    "center_lambda": 788.0,
#    "comments": "",
#    "dark_region": 0.3061366690370875,
#    "date": "11/17/19 15:01:25PM",
#    "eff_field": 1.5,
#    "exposure": 10.0,
#    "fel_lambda": "15.0",
#    "fel_pol": "H",
#    "fel_pulses": 40,
#    "fel_pyro_cal": "0.017",
#    "fel_reprate": "1.07",
#    "fel_transmission": "1.0",
#    "fel_transmission_fits": {
#        "A": 1.0,
#        "C": 0.0,
#        "Mu": 0.0
#    },
#    "fieldInt": {
#        "mean": 9291.975159090909,
#        "std": 420.8077328654208
#    },
#    "fieldStrength": {
#        "mean": 44.21693181818182,
#        "std": 1.0069199815237608
#    },
#    "fpTime": {
#        "mean": 1.1216092728725113,
#        "std": 0.06541551323326773
#    },
#    "gain": 110,
#    "grating": 3,
#    "images_in_sequence": [
#        "hsg_SpotD_crystal16_a00_HAna237.txt",
#        "hsg_SpotD_crystal16_a00_HAna238.txt",
#        "hsg_SpotD_crystal16_a00_HAna239.txt",
#        "hsg_SpotD_crystal16_a00_HAna240.txt"
#    ],
#    "nir_lambda": "820.9918",
#    "nir_pola": "00",
#    "nir_polg": "0",
#    "nir_power": "100.0",
#    "pulseEnergies": {
#        "mean": 2.0062045454545454,
#        "std": 0.10224166359599066
#    },
#    "pyroVoltage": {
#        "mean": 0.12705748055975788,
#        "std": 0.007235631216686093
#    },
#    "rotatorAngle": 225.0,
#    "sample_Temp": "58",
#    "sample_name": "L001218.C3",
#    "series": "SpotD_16_00",
#    "slits": "60",
#    "spec_step": "",
#    "window_trans": 0.92,
#    "y_max": 2,
#    "y_min": 1
#}
#
#
#
#
#
#
#
#
#
#
#
#
#
#
#
#
#
#
#
#
#
#
#
#
#
#
Wavelength,Signal,error
nm,arb. u.,arb.u.
Wavelength,SpotD_16_00,error
761.200217,0.100000,0.079057
761.233859,-0.075000,0.041458
761.267500,0.150000,0.082916
761.301141,-0.250000,0.114564
761.334781,0.025000,0.113880
761.368422,-0.125000,0.021651
761.402062,0.000000,0.061237
761.435702,-0.300000,0.079057
761.469342,-0.300000,0.035355
761.502981,0.100000,0.169558
761.536620,0.050000,0.235850
761.570259,-0.250000,0.134629
761.603898,-0.000000,0.086603
761.637537,-0.100000,0.141421
761.671175,-0.225000,0.108253
761.704813,0.175000,0.113880
761.738451,0.050000,0.075000
761.772088,-0.100000,0.079057
761.805726,-0.375000,0.021651
761.839363,0.075000,0.119242
761.873000,0.100000,0.154110
761.906636,-0.075000,0.073951
761.940273,0.350000,0.108972
761.973909,0.150000,0.108972
762.007545,0.225000,0.167239
762.041180,-0.375000,0.147373
762.074816,0.175000,0.198037
762.108451,0.150000,0.055902
762.142086,0.275000,0.064952
762.175720,0.025000,0.073951
762.209355,-0.175000,0.021651
762.242989,0.450000,0.201556
762.276623,0.100000,0.079057
762.310257,-0.150000,0.125000
762.343890,-0.350000,0.082916
762.377524,0.175000,0.201168
762.411157,0.325000,0.253414
762.444789,0.150000,0.055902
762.478422,0.175000,0.102317
762.512054,0.250000,0.103078
762.545686,0.025000,0.113880
762.579318,0.350000,0.420565
762.612950,0.075000,0.119242
762.646581,-0.075000,0.089268
762.680212,0.375000,0.255869
762.713843,0.350000,0.246221
762.747474,0.625000,0.464186
762.781104,-0.075000,0.064952
762.814734,-0.400000,0.093541
762.848364,-0.225000,0.054486
762.881994,0.050000,0.090139
762.915623,0.050000,0.125000
762.949252,-0.025000,0.138632
762.982881,-0.000000,0.127475
763.016510,-0.025000,0.041458
763.050139,-0.175000,0.054486
763.083767,-0.150000,0.134629
763.117395,-0.075000,0.096014
763.151023,0.100000,0.050000
763.184650,0.300000,0.093541
763.218277,-0.375000,0.096014
763.251904,0.150000,0.134629
763.285531,0.200000,0.206155
763.319158,0.025000,0.064952
763.352784,0.150000,0.192029
763.386410,0.075000,0.178098
763.420036,0.050000,0.219374
763.453661,0.825000,0.429207
763.487287,-0.350000,0.182003
763.520912,-0.775000,0.119242
763.554537,0.150000,0.108972
763.588161,0.425000,0.147373
763.621786,0.125000,0.263095
763.655410,0.550000,0.368273
763.689034,-0.100000,0.035355
763.722657,0.250000,0.182003
763.756281,0.050000,0.129904
763.789904,-0.175000,0.073951
763.823527,-0.050000,0.175000
763.857150,-0.100000,0.035355
763.890772,0.200000,0.413824
763.924394,0.150000,0.103078
763.958016,0.100000,0.093541
763.991638,0.100000,0.061237
764.025260,0.150000,0.055902
764.058881,0.175000,0.124373
764.092502,-0.475000,0.129301
764.126123,-0.000000,0.093541
764.159743,-0.075000,0.073951
764.193363,-0.050000,0.082916
764.226983,0.150000,0.108972
764.260603,0.575000,0.134048
764.294223,-0.125000,0.073951
764.327842,0.175000,0.073951
764.361461,0.200000,0.127475
764.395080,0.075000,0.151554
764.428699,-0.075000,0.064952
764.462317,0.125000,0.108253
764.495935,0.400000,0.280624
764.529553,-0.100000,0.093541
764.563170,0.150000,0.025000
764.596788,0.400000,0.297909
764.630405,0.325000,0.216145
764.664022,-0.175000,0.054486
764.697638,0.150000,0.043301
764.731255,0.725000,0.279229
764.764871,-0.050000,0.075000
764.798487,0.025000,0.167239
764.832103,-0.075000,0.073951
764.865718,0.075000,0.089268
764.899333,-0.125000,0.041458
764.932948,-0.200000,0.035355
764.966563,-0.150000,0.025000
765.000177,0.225000,0.198037
765.033792,-0.125000,0.089268
765.067406,0.250000,0.167705
765.101019,-0.050000,0.055902
765.134633,0.300000,0.606218
765.168246,0.175000,0.096014
765.201859,0.200000,0.050000
765.235472,0.300000,0.262202
765.269084,0.225000,0.198037
765.302697,-0.075000,0.178098
765.336309,-0.050000,0.043301
765.369920,0.425000,0.108253
765.403532,0.150000,0.251247
765.437143,-0.150000,0.114564
765.470754,0.175000,0.041458
765.504365,0.725000,0.418890
765.537976,0.125000,0.064952
765.571586,-0.075000,0.163459
765.605196,-0.175000,0.096014
765.638806,0.325000,0.391112
765.672416,0.300000,0.320156
765.706025,-0.050000,0.055902
765.739634,0.150000,0.075000
765.773243,0.500000,0.266927
765.806851,-0.075000,0.113880
765.840460,0.050000,0.043301
765.874068,0.150000,0.275000
765.907676,-0.225000,0.054486
765.941284,0.000000,0.093541
765.974891,0.100000,0.035355
766.008498,0.275000,0.184983
766.042105,-0.175000,0.021651
766.075712,0.000000,0.165831
766.109318,0.125000,0.235518
766.142924,-0.050000,0.055902
766.176530,-0.425000,0.155624
766.210136,-0.250000,0.090139
766.243741,0.000000,0.093541
766.277347,-0.150000,0.114564
766.310951,-0.225000,0.073951
766.344556,0.175000,0.113880
766.378161,0.225000,0.073951
766.411765,-0.175000,0.054486
766.445369,-0.100000,0.079057
766.478973,-0.225000,0.021651
766.512576,0.475000,0.207289
766.546179,-0.075000,0.064952
766.579782,-0.050000,0.082916
766.613385,0.025000,0.081968
766.646988,-0.225000,0.178098
766.680590,0.100000,0.106066
766.714192,0.050000,0.043301
766.747794,0.125000,0.073951
766.781395,0.275000,0.073951
766.814996,-0.325000,0.041458
766.848597,-0.075000,0.064952
766.882198,0.375000,0.184983
766.915799,0.150000,0.134629
766.949399,0.150000,0.055902
766.982999,0.250000,0.195256
767.016599,-0.050000,0.147902
767.050198,0.100000,0.070711
767.083798,0.050000,0.043301
767.117397,0.100000,0.061237
767.150996,0.175000,0.155624
767.184594,-0.250000,0.075000
767.218193,-0.025000,0.054486
767.251791,-0.100000,0.050000
767.285389,-0.050000,0.125000
767.318986,0.225000,0.224653
767.352583,0.100000,0.035355
767.386181,-0.200000,0.035355
767.419777,-0.200000,0.079057
767.453374,0.375000,0.221853
767.486970,-0.375000,0.096014
767.520567,0.250000,0.082916
767.554162,-0.125000,0.096014
767.587758,0.400000,0.348210
767.621353,0.425000,0.174553
767.654949,0.050000,0.090139
767.688543,0.375000,0.201168
767.722138,0.100000,0.122474
767.755732,0.325000,0.054486
767.789327,-0.025000,0.184983
767.822921,-0.175000,0.073951
767.856514,-0.125000,0.073951
767.890108,0.300000,0.215058
767.923701,0.075000,0.151554
767.957294,-0.075000,0.073951
767.990886,0.200000,0.035355
768.024479,-0.100000,0.106066
768.058071,0.250000,0.043301
768.091663,0.075000,0.267804
768.125255,0.350000,0.410030
768.158846,0.050000,0.082916
768.192437,-0.450000,0.025000
768.226028,-0.050000,0.188746
768.259619,0.125000,0.064952
768.293209,0.325000,0.113880
768.326799,0.475000,0.224653
768.360389,0.000000,0.000000
768.393979,-0.025000,0.089268
768.427568,0.050000,0.075000
768.461158,0.025000,0.041458
768.494747,-0.300000,0.000000
768.528335,-0.125000,0.064952
768.561924,0.350000,0.201556
768.595512,0.250000,0.332603
768.629100,0.200000,0.061237
768.662688,0.100000,0.154110
768.696275,-0.300000,0.035355
768.729862,-0.150000,0.103078
768.763449,0.000000,0.070711
768.797036,-0.200000,0.079057
768.830623,0.050000,0.055902
768.864209,0.050000,0.055902
768.897795,0.025000,0.073951
768.931381,0.150000,0.114564
768.964966,-0.125000,0.134048
768.998551,0.450000,0.219374
769.032136,-0.100000,0.079057
769.065721,-0.025000,0.089268
769.099305,-0.125000,0.134048
769.132890,-0.200000,0.183712
769.166474,0.125000,0.064952
769.200057,0.050000,0.152069
769.233641,0.075000,0.337963
769.267224,0.175000,0.210283
769.300807,-0.125000,0.276981
769.334390,-0.300000,0.035355
769.367972,0.125000,0.054486
769.401555,0.025000,0.096014
769.435137,0.025000,0.174553
769.468718,0.050000,0.134629
769.502300,-0.000000,0.093541
769.535881,0.050000,0.082916
769.569462,-0.450000,0.075000
769.603043,-0.025000,0.134048
769.636623,0.250000,0.163936
769.670204,-0.025000,0.134048
769.703784,-0.025000,0.041458
769.737364,0.275000,0.073951
769.770943,0.025000,0.073951
769.804522,0.175000,0.272431
769.838101,-0.125000,0.073951
769.871680,-0.200000,0.093541
769.905259,-0.250000,0.134629
769.938837,0.050000,0.055902
769.972415,0.075000,0.041458
770.005993,0.175000,0.167239
770.039570,0.125000,0.054486
770.073147,0.150000,0.075000
770.106724,0.125000,0.108253
770.140301,0.225000,0.089268
770.173878,0.550000,0.361421
770.207454,-0.150000,0.075000
770.241030,0.100000,0.093541
770.274606,0.275000,0.240767
770.308181,0.275000,0.073951
770.341757,0.475000,0.240767
770.375332,-0.075000,0.041458
770.408906,0.075000,0.119242
770.442481,0.175000,0.138632
770.476055,0.075000,0.167239
770.509629,0.300000,0.093541
770.543203,-0.050000,0.090139
770.576776,0.000000,0.061237
770.610350,0.075000,0.064952
770.643923,0.125000,0.155624
770.677495,-0.050000,0.025000
770.711068,-0.050000,0.043301
770.744640,0.200000,0.242384
770.778212,-0.050000,0.090139
770.811784,0.225000,0.089268
770.845356,0.025000,0.081968
770.878927,0.250000,0.075000
770.912498,0.400000,0.262202
770.946069,-0.125000,0.054486
770.979639,-0.050000,0.055902
771.013209,0.100000,0.127475
771.046779,-0.400000,0.061237
771.080349,0.025000,0.089268
771.113919,0.000000,0.050000
771.147488,-0.025000,0.041458
771.181057,0.150000,0.147902
771.214626,0.025000,0.073951
771.248194,-0.075000,0.041458
771.281762,-0.125000,0.073951
771.315330,0.125000,0.081968
771.348898,0.575000,0.224653
771.382465,-0.250000,0.043301
771.416033,0.300000,0.215058
771.449600,-0.025000,0.064952
771.483166,0.475000,0.272431
771.516733,0.550000,0.296859
771.550299,0.075000,0.021651
771.583865,0.275000,0.096014
771.617431,-0.050000,0.090139
771.650996,0.725000,0.290205
771.684562,0.100000,0.141421
771.718127,-0.075000,0.064952
771.751691,0.350000,0.167705
771.785256,-0.075000,0.113880
771.818820,-0.150000,0.055902
771.852384,0.350000,0.103078
771.885948,0.075000,0.096014
771.919511,-0.100000,0.145774
771.953074,0.200000,0.117260
771.986637,0.200000,0.117260
772.020200,0.000000,0.035355
772.053762,0.225000,0.184983
772.087325,-0.025000,0.054486
772.120887,0.050000,0.103078
772.154448,-0.100000,0.079057
772.188010,0.150000,0.025000
772.221571,0.000000,0.223607
772.255132,0.025000,0.089268
772.288692,0.375000,0.219018
772.322253,0.475000,0.163459
772.355813,0.275000,0.250936
772.389373,-0.275000,0.170935
772.422933,0.100000,0.443001
772.456492,0.800000,0.465027
772.490051,0.075000,0.041458
772.523610,0.075000,0.054486
772.557169,0.225000,0.230149
772.590727,0.150000,0.103078
772.624285,0.175000,0.054486
772.657843,-0.050000,0.025000
772.691401,-0.325000,0.124373
772.724958,-0.050000,0.075000
772.758515,0.075000,0.096014
772.792072,0.200000,0.127475
772.825629,-0.100000,0.061237
772.859185,0.125000,0.170935
772.892741,-0.175000,0.054486
772.926297,0.125000,0.138632
772.959853,0.425000,0.263095
772.993408,-0.400000,0.145774
773.026963,-0.075000,0.096014
773.060518,0.150000,0.043301
773.094073,0.150000,0.175000
773.127627,-0.050000,0.055902
773.161181,0.275000,0.054486
773.194735,0.725000,0.276981
773.228289,-0.150000,0.043301
773.261842,0.425000,0.143069
773.295395,-0.125000,0.089268
773.328948,0.625000,0.188331
773.362500,0.225000,0.096014
773.396053,-0.125000,0.081968
773.429605,0.100000,0.035355
773.463157,0.400000,0.162019
773.496708,0.075000,0.096014
773.530260,-0.275000,0.041458
773.563811,-0.275000,0.089268
773.597361,0.100000,0.127475
773.630912,0.025000,0.096014
773.664462,0.150000,0.075000
773.698012,0.000000,0.183712
773.731562,0.000000,0.035355
773.765111,0.050000,0.143614
773.798661,-0.050000,0.055902
773.832210,0.075000,0.073951
773.865758,0.025000,0.081968
773.899307,0.175000,0.298695
773.932855,0.150000,0.108972
773.966403,-0.125000,0.054486
773.999951,0.250000,0.235850
774.033498,0.200000,0.169558
774.067046,0.125000,0.041458
774.100593,0.100000,0.086603
774.134139,0.500000,0.237171
774.167686,0.325000,0.159589
774.201232,0.200000,0.136931
774.234778,0.400000,0.122474
774.268324,0.150000,0.075000
774.301869,0.075000,0.021651
774.335414,-0.025000,0.194856
774.368959,-0.100000,0.093541
774.402504,0.175000,0.041458
774.436048,-0.400000,0.035355
774.469592,-0.025000,0.041458
774.503136,0.050000,0.075000
774.536680,0.100000,0.061237
774.570223,0.275000,0.267804
774.603766,0.075000,0.073951
774.637309,0.150000,0.103078
774.670852,0.125000,0.147373
774.704394,-0.025000,0.096014
774.737936,-0.300000,0.035355
774.771478,-0.275000,0.073951
774.805020,-0.000000,0.127475
774.838561,0.075000,0.119242
774.872102,0.575000,0.163459
774.905643,0.275000,0.221853
774.939183,0.175000,0.073951
774.972724,0.025000,0.113880
775.006264,0.450000,0.207666
775.039804,0.725000,0.163459
775.073343,1.125000,0.267804
775.106882,0.225000,0.167239
775.140421,0.100000,0.050000
775.173960,-0.475000,0.081968
775.207499,-0.325000,0.041458
775.241037,-0.075000,0.041458
775.274575,0.300000,0.176777
775.308113,0.075000,0.054486
775.341650,0.050000,0.134629
775.375187,-0.100000,0.000000
775.408724,-0.100000,0.093541
775.442261,-0.225000,0.041458
775.475798,-0.275000,0.054486
775.509334,0.250000,0.055902
775.542870,-0.125000,0.073951
775.576405,-0.225000,0.041458
775.609941,0.075000,0.041458
775.643476,0.250000,0.108972
775.677011,-0.500000,0.035355
775.710546,0.200000,0.061237
775.744080,0.275000,0.155624
775.777614,0.125000,0.064952
775.811148,0.050000,0.160078
775.844682,-0.150000,0.129904
775.878215,-0.050000,0.175000
775.911748,0.150000,0.219374
775.945281,0.075000,0.054486
775.978814,-0.350000,0.075000
776.012346,-0.100000,0.061237
776.045878,0.175000,0.021651
776.079410,0.325000,0.263095
776.112941,0.375000,0.245904
776.146473,0.025000,0.113880
776.180004,-0.100000,0.136931
776.213535,0.350000,0.167705
776.247065,0.300000,0.266927
776.280595,0.250000,0.182003
776.314125,-0.025000,0.073951
776.347655,-0.325000,0.041458
776.381185,-0.200000,0.061237
776.414714,0.175000,0.081968
776.448243,-0.025000,0.041458
776.481772,-0.125000,0.054486
776.515300,0.050000,0.055902
776.548828,-0.100000,0.035355
776.582356,0.125000,0.178098
776.615884,0.225000,0.253414
776.649411,0.175000,0.073951
776.682938,-0.050000,0.082916
776.716465,-0.025000,0.021651
776.749992,0.075000,0.181573
776.783518,0.650000,0.238485
776.817044,0.475000,0.155624
776.850570,0.375000,0.089268
776.884096,0.700000,0.310242
776.917621,0.225000,0.221853
776.951146,0.650000,0.309233
776.984671,-0.300000,0.035355
777.018196,0.050000,0.108972
777.051720,0.075000,0.073951
777.085244,0.150000,0.025000
777.118768,-0.550000,0.090139
777.152292,0.250000,0.103078
777.185815,0.450000,0.207666
777.219338,-0.050000,0.075000
777.252861,0.175000,0.151554
777.286383,0.025000,0.089268
777.319905,0.075000,0.054486
777.353427,-0.050000,0.055902
777.386949,0.150000,0.075000
777.420471,0.300000,0.150000
777.453992,-0.050000,0.082916
777.487513,0.175000,0.064952
777.521033,-0.425000,0.041458
777.554554,-0.150000,0.055902
777.588074,-0.025000,0.119242
777.621594,0.050000,0.055902
777.655114,0.150000,0.055902
777.688633,0.525000,0.124373
777.722152,0.275000,0.198037
777.755671,0.275000,0.073951
777.789190,0.200000,0.061237
777.822708,0.200000,0.154110
777.856226,0.375000,0.041458
777.889744,0.150000,0.114564
777.923261,0.050000,0.025000
777.956779,0.075000,0.073951
777.990296,0.075000,0.081968
778.023812,-0.050000,0.055902
778.057329,0.000000,0.050000
778.090845,0.350000,0.219374
778.124361,0.150000,0.114564
778.157877,0.000000,0.127475
778.191392,0.050000,0.090139
778.224908,0.075000,0.073951
778.258423,0.200000,0.237171
778.291937,0.000000,0.061237
778.325452,0.300000,0.169558
778.358966,0.075000,0.096014
778.392480,-0.050000,0.055902
778.425993,-0.225000,0.064952
778.459507,0.075000,0.155624
778.493020,-0.050000,0.082916
778.526533,-0.100000,0.035355
778.560045,-0.375000,0.041458
778.593558,0.150000,0.055902
778.627070,0.900000,0.615427
778.660582,0.900000,0.169558
778.694093,1.125000,0.230149
778.727605,0.575000,0.265460
778.761116,0.300000,0.162019
778.794626,0.600000,0.316228
778.828137,0.100000,0.035355
778.861647,-0.025000,0.041458
778.895157,0.350000,0.143614
778.928667,-0.025000,0.041458
778.962176,0.025000,0.041458
778.995686,0.025000,0.134048
779.029194,0.300000,0.111803
779.062703,0.150000,0.175000
779.096212,0.125000,0.167239
779.129720,0.225000,0.119242
779.163228,-0.200000,0.061237
779.196735,-0.050000,0.103078
779.230243,-0.400000,0.190394
779.263750,0.150000,0.167705
779.297257,-0.025000,0.021651
779.330763,-0.050000,0.075000
779.364269,-0.000000,0.093541
779.397776,0.075000,0.041458
779.431281,0.000000,0.079057
779.464787,0.325000,0.167239
779.498292,-0.025000,0.041458
779.531797,0.150000,0.025000
779.565302,0.175000,0.073951
779.598806,0.300000,0.187083
779.632311,0.175000,0.021651
779.665814,0.100000,0.061237
779.699318,0.025000,0.041458
779.732822,0.625000,0.483962
779.766325,0.150000,0.103078
779.799828,0.125000,0.021651
779.833330,0.325000,0.207289
779.866833,-0.050000,0.025000
779.900335,0.600000,0.318198
779.933837,-0.100000,0.079057
779.967338,0.225000,0.288043
780.000840,-0.025000,0.089268
780.034341,-0.250000,0.082916
780.067841,-0.050000,0.025000
780.101342,-0.025000,0.073951
780.134842,0.125000,0.073951
780.168342,0.150000,0.134629
780.201842,0.125000,0.167239
780.235341,0.225000,0.081968
780.268841,0.000000,0.079057
780.302340,0.200000,0.237171
780.335838,0.175000,0.113880
780.369337,0.050000,0.125000
780.402835,0.550000,0.207666
780.436333,0.775000,0.391112
780.469830,1.025000,0.300780
780.503328,1.475000,0.383039
780.536825,1.775000,0.458769
780.570322,0.525000,0.113880
780.603818,0.075000,0.134048
780.637315,-0.050000,0.043301
780.670811,0.225000,0.147373
780.704306,0.050000,0.192029
780.737802,0.325000,0.204252
780.771297,-0.025000,0.096014
780.804792,0.200000,0.093541
780.838287,-0.025000,0.041458
780.871781,0.200000,0.145774
780.905276,-0.100000,0.127475
780.938770,-0.175000,0.155624
780.972263,-0.150000,0.055902
781.005757,0.250000,0.134629
781.039250,0.100000,0.106066
781.072743,0.550000,0.288314
781.106235,0.150000,0.129904
781.139728,-0.100000,0.035355
781.173220,0.275000,0.064952
781.206712,0.300000,0.070711
781.240203,-0.050000,0.043301
781.273694,-0.150000,0.043301
781.307185,0.125000,0.073951
781.340676,0.100000,0.093541
781.374167,0.050000,0.025000
781.407657,0.475000,0.188331
781.441147,-0.075000,0.041458
781.474636,0.000000,0.050000
781.508126,0.375000,0.384667
781.541615,0.000000,0.106066
781.575104,0.050000,0.055902
781.608593,0.100000,0.154110
781.642081,-0.125000,0.089268
781.675569,-0.150000,0.075000
781.709057,-0.025000,0.021651
781.742544,0.100000,0.050000
781.776032,-0.025000,0.102317
781.809519,0.225000,0.081968
781.843006,0.325000,0.138632
781.876492,-0.100000,0.035355
781.909978,0.275000,0.096014
781.943464,0.100000,0.093541
781.976950,0.075000,0.064952
782.010435,0.200000,0.122474
782.043921,0.125000,0.143069
782.077406,0.125000,0.021651
782.110890,0.150000,0.043301
782.144375,-0.025000,0.073951
782.177859,0.275000,0.054486
782.211343,-0.125000,0.021651
782.244826,0.925000,0.369755
782.278309,2.575000,0.420379
782.311792,2.100000,0.250000
782.345275,2.100000,0.379144
782.378758,3.100000,0.093541
782.412240,0.825000,0.461485
782.445722,0.525000,0.198037
782.479204,0.150000,0.114564
782.512685,-0.300000,0.050000
782.546166,-0.000000,0.111803
782.579647,0.050000,0.075000
782.613128,0.150000,0.043301
782.646608,-0.100000,0.117260
782.680088,0.200000,0.061237
782.713568,-0.250000,0.055902
782.747048,0.075000,0.021651
782.780527,-0.375000,0.041458
782.814006,-0.075000,0.089268
782.847485,0.100000,0.117260
782.880963,-0.325000,0.041458
782.914442,0.025000,0.113880
782.947920,-0.100000,0.061237
782.981397,0.275000,0.213234
783.014875,-0.025000,0.064952
783.048352,-0.125000,0.041458
783.081829,0.150000,0.075000
783.115306,0.275000,0.129301
783.148782,-0.150000,0.090139
783.182258,-0.075000,0.198037
783.215734,0.025000,0.073951
783.249209,-0.375000,0.064952
783.282685,0.350000,0.075000
783.316160,0.100000,0.106066
783.349635,0.075000,0.073951
783.383109,-0.350000,0.055902
783.416583,-0.200000,0.035355
783.450057,0.125000,0.143069
783.483531,0.075000,0.081968
783.517004,0.225000,0.041458
783.550477,0.250000,0.167705
783.583950,0.350000,0.055902
783.617423,0.575000,0.288043
783.650895,0.175000,0.064952
783.684367,-0.050000,0.075000
783.717839,-0.550000,0.043301
783.751311,-0.175000,0.041458
783.784782,0.000000,0.070711
783.818253,0.300000,0.257391
783.851724,0.275000,0.248433
783.885194,0.150000,0.075000
783.918665,0.350000,0.283945
783.952134,0.100000,0.093541
783.985604,0.225000,0.021651
784.019074,0.100000,0.035355
784.052543,0.175000,0.054486
784.086012,1.050000,0.326917
784.119480,1.600000,0.154110
784.152948,3.425000,0.688635
784.186416,4.025000,0.491649
784.219884,3.250000,0.795692
784.253352,1.400000,0.735697
784.286819,0.100000,0.176777
784.320286,-0.125000,0.089268
784.353753,0.050000,0.025000
784.387219,0.025000,0.041458
784.420685,0.025000,0.081968
784.454151,-0.025000,0.041458
784.487617,-0.125000,0.073951
784.521082,0.175000,0.073951
784.554547,1.350000,0.641775
784.588012,-0.075000,0.054486
784.621477,0.100000,0.093541
784.654941,-0.075000,0.054486
784.688405,0.525000,0.167239
784.721869,0.075000,0.021651
784.755332,-0.175000,0.054486
784.788795,0.375000,0.285865
784.822258,0.425000,0.119242
784.855721,0.325000,0.113880
784.889183,0.250000,0.103078
784.922646,-0.075000,0.113880
784.956107,0.200000,0.070711
784.989569,-0.225000,0.089268
785.023030,0.225000,0.368061
785.056491,-0.025000,0.021651
785.089952,0.300000,0.291548
785.123413,0.125000,0.096014
785.156873,-0.300000,0.061237
785.190333,0.000000,0.079057
785.223792,0.275000,0.041458
785.257252,0.250000,0.075000
785.290711,0.000000,0.070711
785.324170,-0.225000,0.041458
785.357629,0.175000,0.041458
785.391087,0.150000,0.160078
785.424545,0.100000,0.086603
785.458003,0.275000,0.188331
785.491460,-0.050000,0.108972
785.524918,0.275000,0.227418
785.558375,0.000000,0.061237
785.591831,0.250000,0.248747
785.625288,0.150000,0.163936
785.658744,0.150000,0.055902
785.692200,0.250000,0.305164
785.725655,-0.025000,0.089268
785.759111,0.325000,0.224653
785.792566,0.050000,0.182003
785.826021,0.175000,0.163459
785.859475,-0.200000,0.093541
785.892930,0.300000,0.154110
785.926384,0.725000,0.188331
785.959837,2.750000,0.697764
785.993291,3.800000,0.552268
786.026744,4.525000,0.734315
786.060197,3.725000,0.458769
786.093649,1.325000,0.194856
786.127102,0.250000,0.114564
786.160554,0.075000,0.089268
786.194006,0.150000,0.103078
786.227457,-0.050000,0.055902
786.260909,0.200000,0.111803
786.294360,-0.050000,0.055902
786.327810,-0.225000,0.041458
786.361261,0.100000,0.117260
786.394711,0.100000,0.093541
786.428161,0.000000,0.176777
786.461611,-0.200000,0.035355
786.495060,-0.050000,0.043301
786.528509,-0.100000,0.050000
786.561958,0.075000,0.054486
786.595407,0.100000,0.122474
786.628855,0.375000,0.163459
786.662303,-0.300000,0.093541
786.695751,0.125000,0.174553
786.729198,0.025000,0.021651
786.762645,0.050000,0.125000
786.796092,-0.125000,0.073951
786.829539,0.150000,0.075000
786.862985,0.100000,0.035355
786.896431,0.050000,0.043301
786.929877,0.125000,0.073951
786.963323,0.600000,0.150000
786.996768,0.200000,0.061237
787.030213,-0.150000,0.025000
787.063658,-0.125000,0.181573
787.097102,0.075000,0.041458
787.130547,-0.400000,0.176777
787.163991,-0.100000,0.117260
787.197434,0.050000,0.103078
787.230878,0.475000,0.181573
787.264321,0.175000,0.073951
787.297764,-0.150000,0.082916
787.331206,0.375000,0.184983
787.364648,0.350000,0.114564
787.398090,0.325000,0.073951
787.431532,0.150000,0.192029
787.464974,-0.050000,0.108972
787.498415,0.125000,0.232849
787.531856,0.000000,0.061237
787.565296,-0.150000,0.055902
787.598737,0.200000,0.035355
787.632177,0.400000,0.061237
787.665617,-0.200000,0.035355
787.699056,-0.000000,0.079057
787.732496,-0.050000,0.103078
787.765935,0.775000,0.155624
787.799373,2.375000,0.780525
787.832812,6.025000,0.808065
787.866250,8.450000,0.354436
787.899688,6.125000,0.751977
787.933126,2.650000,0.622997
787.966563,1.325000,0.260708
788.000000,0.325000,0.138632
788.033437,0.250000,0.160078
788.066873,0.275000,0.102317
788.100310,0.250000,0.134629
788.133746,0.375000,0.216145
788.167181,0.100000,0.061237
788.200617,0.025000,0.041458
788.234052,0.050000,0.055902
788.267487,-0.125000,0.096014
788.300921,0.250000,0.134629
788.334356,0.150000,0.055902
788.367790,0.200000,0.117260
788.401224,-0.050000,0.082916
788.434657,-0.250000,0.055902
788.468090,0.200000,0.079057
788.501523,0.125000,0.064952
788.534956,0.025000,0.113880
788.568389,0.225000,0.021651
788.601821,0.000000,0.086603
788.635253,0.150000,0.103078
788.668684,0.100000,0.079057
788.702116,0.350000,0.279508
788.735547,0.275000,0.326678
788.768977,0.175000,0.113880
788.802408,0.125000,0.081968
788.835838,0.100000,0.079057
788.869268,0.425000,0.181573
788.902698,0.125000,0.073951
788.936127,0.000000,0.050000
788.969556,0.150000,0.147902
789.002985,0.150000,0.055902
789.036414,0.425000,0.240767
789.069842,-0.125000,0.064952
789.103270,0.075000,0.041458
789.136698,0.325000,0.143069
789.170125,0.000000,0.061237
789.203552,0.100000,0.035355
789.236979,0.375000,0.159589
789.270406,0.175000,0.224653
789.303832,0.400000,0.379144
789.337258,0.325000,0.374792
789.370684,-0.025000,0.073951
789.404110,-0.050000,0.055902
789.437535,0.425000,0.113880
789.470960,0.100000,0.136931
789.504385,0.575000,0.442118
789.537809,0.575000,0.506674
789.571233,0.050000,0.043301
789.604657,0.575000,0.163459
789.638081,2.125000,0.531948
789.671504,3.925000,0.314990
789.704927,6.200000,1.256483
789.738350,9.225000,1.074346
789.771772,8.933333,0.081650
789.805195,2.450000,0.626997
789.838617,1.450000,0.277263
789.872038,0.550000,0.425000
789.905460,-0.500000,0.061237
789.938881,0.125000,0.064952
789.972302,0.375000,0.041458
790.005722,0.150000,0.090139
790.039143,-0.100000,0.093541
790.072563,0.250000,0.108972
790.105982,0.225000,0.198037
790.139402,0.125000,0.054486
790.172821,-0.175000,0.138632
790.206240,0.025000,0.073951
790.239658,0.100000,0.035355
790.273077,0.400000,0.145774
790.306495,0.275000,0.272431
790.339913,0.400000,0.165831
790.373330,0.075000,0.064952
790.406747,0.075000,0.054486
790.440164,0.075000,0.151554
790.473581,0.100000,0.070711
790.506997,0.350000,0.201556
790.540414,0.025000,0.064952
790.573829,0.050000,0.043301
790.607245,0.250000,0.114564
790.640660,0.025000,0.113880
790.674075,0.200000,0.093541
790.707490,0.375000,0.167239
790.740904,0.300000,0.061237
790.774319,0.300000,0.176777
790.807733,0.400000,0.203101
790.841146,0.175000,0.113880
790.874560,0.100000,0.196850
790.907973,0.050000,0.055902
790.941385,0.450000,0.305164
790.974798,0.225000,0.230149
791.008210,0.300000,0.093541
791.041622,0.200000,0.183712
791.075034,0.050000,0.114564
791.108445,0.075000,0.041458
791.141856,0.300000,0.079057
791.175267,0.250000,0.296859
791.208678,0.175000,0.073951
791.242088,0.175000,0.054486
791.275498,0.100000,0.035355
791.308908,0.150000,0.108972
791.342317,0.450000,0.235850
791.375726,0.300000,0.093541
791.409135,0.100000,0.117260
791.442544,0.125000,0.238157
791.475952,0.650000,0.075000
791.509360,3.525000,0.541266
791.542768,9.425000,0.890488
791.576176,19.125000,2.160548
791.609583,20.025000,0.290205
791.642990,17.575000,1.270027
791.676396,6.775000,0.694060
791.709803,2.000000,0.183712
791.743209,0.650000,0.182003
791.776615,0.025000,0.113880
791.810020,0.100000,0.122474
791.843425,0.400000,0.237171
791.876830,-0.350000,0.055902
791.910235,0.275000,0.134048
791.943640,-0.050000,0.114564
791.977044,-0.000000,0.183712
792.010448,-0.150000,0.043301
792.043851,0.425000,0.191621
792.077254,0.075000,0.124373
792.110658,-0.025000,0.021651
792.144060,0.000000,0.061237
792.177463,0.125000,0.113880
792.210865,-0.075000,0.124373
792.244267,0.250000,0.108972
792.277668,0.100000,0.093541
792.311070,0.125000,0.041458
792.344471,0.275000,0.184983
792.377872,0.150000,0.025000
792.411272,0.325000,0.155624
792.444672,0.000000,0.050000
792.478072,0.125000,0.147373
792.511472,0.050000,0.163936
792.544871,0.175000,0.089268
792.578271,0.025000,0.198037
792.611669,0.150000,0.043301
792.645068,0.150000,0.134629
792.678466,-0.275000,0.064952
792.711864,-0.050000,0.103078
792.745262,-0.075000,0.073951
792.778659,-0.050000,0.025000
792.812056,0.300000,0.269258
792.845453,0.275000,0.073951
792.878850,0.025000,0.073951
792.912246,0.125000,0.054486
792.945642,0.025000,0.096014
792.979038,0.275000,0.064952
793.012433,0.475000,0.155624
793.045829,0.100000,0.127475
793.079223,-0.200000,0.070711
793.112618,-0.150000,0.025000
793.146012,0.250000,0.201556
793.179406,0.200000,0.212132
793.212800,-0.175000,0.041458
793.246194,0.350000,0.188746
793.279587,0.125000,0.081968
793.312980,0.400000,0.035355
793.346373,0.775000,0.501716
793.379765,1.675000,0.201168
793.413157,7.125000,0.328586
793.446549,17.425000,1.673460
793.479940,25.725000,1.942735
793.513332,22.225000,1.829062
793.546723,8.125000,0.572686
793.580113,2.475000,0.522464
793.613504,0.900000,0.455522
793.646894,0.100000,0.242384
793.680284,0.125000,0.054486
793.713673,0.000000,0.154110
793.747062,0.025000,0.054486
793.780451,-0.025000,0.073951
793.813840,0.450000,0.134629
793.847228,0.375000,0.129301
793.880617,0.200000,0.229129
793.914004,0.225000,0.064952
793.947392,-0.275000,0.064952
793.980779,-0.250000,0.055902
794.014166,-0.075000,0.163459
794.047553,0.275000,0.188331
794.080940,0.050000,0.103078
794.114326,0.025000,0.064952
794.147712,0.600000,0.231840
794.181097,0.075000,0.108253
794.214483,0.250000,0.201556
794.247868,0.450000,0.225000
794.281252,0.450000,0.055902
794.314637,-0.275000,0.041458
794.348021,0.625000,0.384667
794.381405,0.525000,0.357727
794.414788,0.175000,0.143069
794.448172,0.475000,0.224653
794.481555,0.100000,0.093541
794.514938,0.175000,0.054486
794.548320,-0.075000,0.054486
794.581702,-0.025000,0.089268
794.615084,0.150000,0.055902
794.648466,0.050000,0.129904
794.681847,0.300000,0.093541
794.715228,0.100000,0.237171
794.748609,0.325000,0.270127
794.781990,0.525000,0.281458
794.815370,0.700000,0.348210
794.848750,-0.200000,0.106066
794.882129,0.025000,0.188331
794.915509,0.250000,0.175000
794.948888,-0.100000,0.154110
794.982267,-0.025000,0.041458
795.015645,-0.100000,0.061237
795.049023,0.650000,0.188746
795.082401,-0.100000,0.145774
795.115779,0.375000,0.470870
795.149156,0.325000,0.238157
795.182534,0.450000,0.108972
795.215910,0.875000,0.294480
795.249287,1.850000,0.602599
795.282663,6.133333,0.339730
795.316039,15.200000,0.503736
795.349415,28.300000,0.486056
795.382790,44.900000,1.298075
795.416165,25.950000,2.196731
795.449540,6.466667,0.672991
795.482915,1.900000,0.344601
795.516289,0.600000,0.242384
795.549663,-0.125000,0.096014
795.583037,-0.100000,0.061237
795.616410,0.100000,0.061237
795.649783,-0.250000,0.075000
795.683156,-0.075000,0.096014
795.716529,0.175000,0.155624
795.749901,0.150000,0.292617
795.783273,0.025000,0.064952
795.816645,-0.175000,0.064952
795.850016,0.025000,0.064952
795.883387,0.075000,0.064952
795.916758,0.075000,0.021651
795.950129,0.250000,0.055902
795.983499,0.325000,0.174553
796.016869,-0.050000,0.103078
796.050239,-0.075000,0.198037
796.083608,-0.075000,0.096014
796.116977,-0.175000,0.054486
796.150346,-0.350000,0.055902
796.183714,0.150000,0.075000
796.217083,0.400000,0.117260
796.250451,0.175000,0.216145
796.283818,0.125000,0.081968
796.317186,0.825000,0.628863
796.350553,0.000000,0.127475
796.383920,0.400000,0.300000
796.417286,0.150000,0.082916
796.450653,0.375000,0.230149
796.484019,0.275000,0.129301
796.517384,0.200000,0.117260
796.550750,0.000000,0.154110
796.584115,0.100000,0.061237
796.617480,0.225000,0.263095
796.650844,0.150000,0.090139
796.684209,0.350000,0.114564
796.717573,0.025000,0.073951
796.750936,0.525000,0.198037
796.784300,0.275000,0.143069
796.817663,0.050000,0.108972
796.851026,-0.025000,0.041458
796.884388,0.100000,0.127475
796.917751,0.125000,0.102317
796.951113,0.125000,0.198037
796.984474,0.175000,0.041458
797.017836,0.125000,0.113880
797.051197,-0.050000,0.114564
797.084558,-0.050000,0.055902
797.117918,0.425000,0.124373
797.151279,1.825000,0.316968
797.184639,9.775000,0.650360
797.217998,24.450000,1.126111
797.251358,38.125000,1.236110
797.284717,44.133333,2.687316
797.318076,21.625000,1.477910
797.351434,6.300000,0.768928
797.384793,1.875000,0.608661
797.418151,0.650000,0.160078
797.451508,0.700000,0.162019
797.484866,0.150000,0.125000
797.518223,0.425000,0.181573
797.551580,0.075000,0.064952
797.584936,0.525000,0.283670
797.618292,0.225000,0.326678
797.651648,-0.025000,0.041458
797.685004,0.150000,0.163936
797.718360,0.350000,0.152069
797.751715,0.350000,0.129904
797.785069,0.175000,0.041458
797.818424,-0.025000,0.151554
797.851778,-0.075000,0.096014
797.885132,-0.350000,0.129904
797.918486,0.150000,0.043301
797.951839,0.025000,0.064952
797.985192,1.100000,0.437321
798.018545,0.300000,0.117260
798.051898,0.450000,0.175000
798.085250,0.175000,0.184983
798.118602,0.100000,0.117260
798.151954,0.275000,0.279229
798.185305,0.525000,0.219018
798.218656,0.450000,0.143614
798.252007,0.475000,0.181573
798.285357,0.475000,0.081968
798.318708,0.025000,0.064952
798.352057,0.125000,0.054486
798.385407,0.100000,0.106066
798.418756,0.050000,0.160078
798.452106,0.425000,0.314990
798.485454,-0.150000,0.055902
798.518803,0.325000,0.147373
798.552151,0.275000,0.194856
798.585499,0.625000,0.227418
798.618847,0.025000,0.081968
798.652194,0.025000,0.041458
798.685541,0.375000,0.041458
798.718888,0.250000,0.103078
798.752234,-0.150000,0.043301
798.785580,0.350000,0.103078
798.818926,0.125000,0.054486
798.852272,0.225000,0.089268
798.885617,-0.075000,0.124373
798.918962,0.375000,0.054486
798.952307,0.150000,0.160078
798.985651,0.500000,0.079057
799.018996,0.900000,0.061237
799.052339,2.975000,0.554949
799.085683,12.225000,0.990817
799.119026,34.325000,0.817294
799.152369,57.900000,1.152714
799.185712,62.166667,2.226638
799.219054,41.800000,2.362731
799.252397,10.475000,1.591923
799.285738,2.375000,0.805741
799.319080,0.750000,0.425000
799.352421,0.375000,0.151554
799.385762,0.225000,0.081968
799.419103,0.075000,0.041458
799.452443,0.200000,0.150000
799.485783,0.050000,0.055902
799.519123,0.225000,0.124373
799.552463,0.025000,0.064952
799.585802,0.250000,0.103078
799.619141,0.100000,0.070711
799.652480,-0.225000,0.073951
799.685818,-0.150000,0.043301
799.719156,0.500000,0.176777
799.752494,0.250000,0.090139
799.785831,0.050000,0.075000
799.819169,0.200000,0.093541
799.852506,-0.075000,0.054486
799.885842,0.450000,0.103078
799.919179,-0.100000,0.117260
799.952515,0.175000,0.096014
799.985850,0.375000,0.326678
800.019186,0.025000,0.108253
800.052521,0.325000,0.108253
800.085856,0.125000,0.113880
800.119191,0.375000,0.041458
800.152525,0.225000,0.113880
800.185859,0.425000,0.124373
800.219193,0.175000,0.134048
800.252526,0.450000,0.082916
800.285859,0.325000,0.235518
800.319192,0.225000,0.230149
800.352525,-0.000000,0.093541
800.385857,0.050000,0.055902
800.419189,0.275000,0.089268
800.452521,0.550000,0.108972
800.485852,0.425000,0.129301
800.519183,0.450000,0.225000
800.552514,0.450000,0.152069
800.585844,-0.275000,0.201168
800.619175,0.075000,0.188331
800.652505,0.475000,0.089268
800.685834,0.300000,0.127475
800.719164,0.150000,0.147902
800.752493,0.050000,0.103078
800.785821,0.400000,0.061237
800.819150,-0.025000,0.064952
800.852478,0.025000,0.073951
800.885806,0.925000,0.336108
800.919134,1.200000,0.231840
800.952461,2.766667,0.102062
800.985788,15.075000,1.221359
801.019115,55.925000,0.662736
801.052441,108.400000,1.671825
801.085767,163.475000,4.052064
801.119093,121.600000,2.590125
801.152419,41.200000,2.446426
801.185744,8.875000,1.430199
801.219069,1.675000,0.541266
801.252394,1.425000,0.232849
801.285718,0.175000,0.155624
801.319042,0.175000,0.108253
801.352366,0.325000,0.143069
801.385690,0.775000,0.238157
801.419013,-0.250000,0.143614
801.452336,0.200000,0.519615
801.485658,-0.375000,0.263095
801.518981,0.350000,0.025000
801.552303,0.600000,0.462331
801.585625,0.450000,0.251247
801.618946,-0.225000,0.064952
801.652267,-0.250000,0.055902
801.685588,0.300000,0.111803
801.718909,0.675000,0.359470
801.752229,0.325000,0.064952
801.785549,0.725000,0.119242
801.818869,0.025000,0.089268
801.852188,0.125000,0.314990
801.885507,0.350000,0.103078
801.918826,0.350000,0.075000
801.952145,-0.075000,0.170935
801.985463,-0.100000,0.122474
802.018781,0.425000,0.198037
802.052099,0.475000,0.124373
802.085416,0.175000,0.041458
802.118733,0.225000,0.073951
802.152050,0.550000,0.108972
802.185366,0.275000,0.151554
802.218683,0.175000,0.124373
802.251999,0.225000,0.089268
802.285314,0.000000,0.196850
802.318630,0.400000,0.176777
802.351945,0.125000,0.073951
802.385259,0.375000,0.279229
802.418574,0.525000,0.221853
802.451888,0.425000,0.096014
802.485202,0.725000,0.313000
802.518515,-0.025000,0.081968
802.551829,0.550000,0.410030
802.585142,0.375000,0.213234
802.618454,0.325000,0.108253
802.651767,0.750000,0.309233
802.685079,-0.300000,0.293684
802.718391,0.125000,0.041458
802.751702,0.325000,0.089268
802.785013,0.975000,0.500469
802.818324,1.200000,0.369121
802.851635,1.175000,0.129301
802.884945,4.475000,0.434993
802.918255,30.175000,1.922685
802.951565,102.425000,0.879897
802.984874,168.425000,5.389385
803.018184,202.500000,1.862458
803.051492,107.175000,3.385885
803.084801,22.175000,1.929824
803.118109,5.475000,1.078990
803.151417,0.775000,0.240767
803.184725,0.325000,0.147373
803.218032,0.350000,0.090139
803.251339,0.525000,0.108253
803.284646,0.175000,0.064952
803.317953,0.150000,0.143614
803.351259,-0.100000,0.145774
803.384565,0.025000,0.089268
803.417870,0.600000,0.250000
803.451176,0.375000,0.134048
803.484481,0.375000,0.181573
803.517786,0.525000,0.232849
803.551090,0.100000,0.093541
803.584394,0.450000,0.364863
803.617698,-0.100000,0.111803
803.651002,0.275000,0.096014
803.684305,-0.050000,0.075000
803.717608,0.675000,0.433554
803.750910,0.375000,0.267804
803.784213,0.475000,0.155624
803.817515,0.825000,0.238157
803.850817,0.000000,0.154110
803.884118,0.350000,0.103078
803.917419,1.150000,0.192029
803.950720,0.525000,0.174553
803.984021,1.200000,0.237171
804.017321,0.750000,0.129904
804.050621,0.675000,0.267804
804.083921,0.050000,0.055902
804.117220,0.350000,0.251247
804.150519,0.275000,0.129301
804.183818,0.675000,0.124373
804.217117,0.175000,0.314990
804.250415,0.500000,0.215058
804.283713,0.350000,0.055902
804.317011,0.250000,0.114564
804.350308,0.225000,0.081968
804.383605,0.050000,0.082916
804.416902,0.200000,0.061237
804.450198,0.525000,0.054486
804.483494,0.475000,0.073951
804.516790,0.500000,0.276134
804.550086,0.150000,0.055902
804.583381,-0.100000,0.093541
804.616676,0.475000,0.240767
804.649971,0.675000,0.412879
804.683265,0.925000,0.330483
804.716559,0.650000,0.464354
804.749853,0.925000,0.288043
804.783146,1.675000,0.255869
804.816440,7.650000,0.082916
804.849732,43.525000,1.684256
804.883025,145.275000,3.266760
804.916317,240.000000,2.340673
804.949609,273.850000,6.379704
804.982901,142.300000,7.384697
805.016192,21.200000,0.706222
805.049484,7.150000,1.435923
805.082774,0.125000,0.281458
805.116065,0.500000,0.196850
805.149355,0.375000,0.288043
805.182645,0.075000,0.108253
805.215935,0.100000,0.070711
805.249224,-0.025000,0.064952
805.282513,0.175000,0.096014
805.315802,0.725000,0.204252
805.349090,0.550000,0.075000
805.382378,0.725000,0.134048
805.415666,0.200000,0.050000
805.448954,0.725000,0.198037
805.482241,0.100000,0.093541
805.515528,0.150000,0.163936
805.548815,0.725000,0.191621
805.582101,0.475000,0.216145
805.615387,0.950000,0.480234
805.648673,0.525000,0.188331
805.681958,0.325000,0.240767
805.715243,0.625000,0.147373
805.748528,0.575000,0.216145
805.781813,0.325000,0.147373
805.815097,0.700000,0.266927
805.848381,0.550000,0.406971
805.881665,1.575000,0.702117
805.914948,1.250000,0.248747
805.948231,0.925000,0.446339
805.981514,0.350000,0.147902
806.014796,0.800000,0.306186
806.048079,0.700000,0.318198
806.081360,-0.025000,0.021651
806.114642,0.525000,0.198037
806.147923,0.600000,0.316228
806.181204,0.675000,0.330483
806.214485,-0.075000,0.330483
806.247765,0.175000,0.181573
806.281046,0.700000,0.183712
806.314325,-0.125000,0.021651
806.347605,0.225000,0.143069
806.380884,-0.325000,0.143069
806.414163,0.750000,0.114564
806.447441,0.400000,0.206155
806.480720,0.125000,0.113880
806.513998,0.300000,0.136931
806.547275,0.525000,0.119242
806.580553,0.400000,0.117260
806.613830,0.775000,0.313000
806.647107,1.275000,0.155624
806.680383,1.300000,0.127475
806.713659,0.875000,0.276981
806.746935,8.225000,0.635782
806.780211,44.066667,0.357654
806.813486,194.800000,4.320735
806.846761,390.150000,3.551848
806.880036,504.425000,4.760695
806.913310,352.466667,1.462162
806.946584,82.025000,3.918127
806.979858,10.950000,1.151901
807.013132,1.425000,0.155624
807.046405,1.050000,0.227761
807.079678,0.600000,0.196850
807.112951,0.275000,0.096014
807.146223,-0.075000,0.021651
807.179495,0.450000,0.341870
807.212767,-0.250000,0.201556
807.246038,0.125000,0.108253
807.279309,0.150000,0.090139
807.312580,0.125000,0.224653
807.345850,0.300000,0.351781
807.379121,0.800000,0.467707
807.412390,0.525000,0.143069
807.445660,0.600000,0.183712
807.478929,0.300000,0.145774
807.512198,0.375000,0.096014
807.545467,-0.025000,0.143069
807.578735,0.200000,0.061237
807.612004,-0.400000,0.158114
807.645271,0.400000,0.478278
807.678539,0.475000,0.397453
807.711806,0.625000,0.267804
807.745073,0.025000,0.113880
807.778340,0.750000,0.583631
807.811606,0.700000,0.086603
807.844872,0.625000,0.041458
807.878138,0.400000,0.289396
807.911403,0.125000,0.054486
807.944668,0.775000,0.300780
807.977933,0.275000,0.129301
808.011197,0.450000,0.311247
808.044462,0.750000,0.055902
808.077725,-0.075000,0.096014
808.110989,0.275000,0.081968
808.144252,1.075000,0.362931
808.177515,1.275000,0.332368
808.210778,0.875000,0.248433
808.244040,0.900000,0.358818
808.277302,-0.125000,0.119242
808.310564,0.825000,0.250936
808.343826,1.350000,0.400780
808.377087,0.625000,0.341641
808.410348,0.675000,0.191621
808.443608,1.025000,0.308980
808.476869,0.675000,0.124373
808.510129,0.275000,0.270127
808.543388,0.950000,0.055902
808.576648,1.025000,0.520066
808.609907,0.825000,0.314990
808.643165,1.375000,0.248433
808.676424,3.100000,0.310242
808.709682,23.000000,1.043432
808.742940,156.575000,3.347457
808.776197,499.225000,11.007121
808.809455,700.450000,9.814116
808.842712,682.125000,8.121066
808.875968,293.425000,7.910071
808.909225,45.225000,1.853502
808.942481,12.250000,1.739432
808.975736,1.250000,0.311247
809.008992,1.150000,0.593191
809.042247,0.700000,0.250000
809.075502,0.025000,0.188331
809.108756,-0.200000,0.206155
809.142011,0.500000,0.215058
809.175265,0.250000,0.248747
809.208518,0.550000,0.129904
809.241772,0.450000,0.167705
809.275025,0.625000,0.170935
809.308277,0.500000,0.306186
809.341530,0.200000,0.106066
809.374782,0.825000,0.276981
809.408034,1.175000,0.267804
809.441285,0.550000,0.328824
809.474536,0.400000,0.269258
809.507787,0.975000,0.255869
809.541038,1.100000,0.269258
809.574288,0.300000,0.061237
809.607538,0.500000,0.150000
809.640788,0.250000,0.103078
809.674037,0.475000,0.041458
809.707286,1.125000,0.155624
809.740535,1.400000,0.162019
809.773783,1.100000,0.582022
809.807032,1.675000,0.797163
809.840279,0.500000,0.310242
809.873527,1.300000,0.379144
809.906774,0.800000,0.348210
809.940021,0.775000,0.302851
809.973268,0.450000,0.103078
810.006514,0.400000,0.212132
810.039760,0.375000,0.151554
810.073006,0.800000,0.340955
810.106251,1.025000,0.064952
810.139497,2.325000,0.337963
810.172741,0.950000,0.125000
810.205986,0.775000,0.194856
810.239230,0.400000,0.093541
810.272474,2.100000,0.388909
810.305718,2.125000,0.235518
810.338961,1.500000,0.650961
810.372204,0.975000,0.474835
810.405447,0.575000,0.495448
810.438689,1.075000,0.167239
810.471931,1.500000,0.203101
810.505173,0.950000,0.147902
810.538414,2.700000,0.473022
810.571656,1.775000,0.124373
810.604897,3.675000,0.397453
810.638137,7.325000,0.524851
810.671377,56.375000,1.037048
810.704617,346.300000,2.865092
810.737857,1062.750000,6.651832
810.771096,1391.950000,14.700064
810.804335,1174.550000,12.491022
810.837574,424.500000,8.815257
810.870813,58.966667,1.804277
810.904051,11.766667,0.922180
810.937288,2.175000,0.108253
810.970526,0.825000,0.387903
811.003763,0.675000,0.310996
811.037000,0.950000,0.460299
811.070237,-0.025000,0.167239
811.103473,-0.025000,0.119242
811.136709,-0.425000,0.129301
811.169945,0.025000,0.174553
811.203180,0.325000,0.204252
811.236415,0.700000,0.215058
811.269650,0.825000,0.253414
811.302884,-0.075000,0.129301
811.336119,0.000000,0.079057
811.369352,0.425000,0.302851
811.402586,0.975000,0.235518
811.435819,3.775000,0.350669
811.469052,7.275000,1.492638
811.502285,5.350000,1.247748
811.535517,3.425000,1.434562
811.568749,0.325000,0.276981
811.601981,2.425000,0.456036
811.635212,1.150000,0.493077
811.668443,0.275000,0.119242
811.701674,1.500000,0.749166
811.734905,0.566667,0.194722
811.768135,0.700000,0.441588
811.801365,0.800000,0.169558
811.834594,1.300000,0.456892
811.867824,-0.025000,0.188331
811.901053,0.200000,0.351781
811.934281,0.300000,0.203101
811.967510,0.075000,0.198037
812.000738,0.425000,0.274716
812.033965,0.225000,0.314990
812.067193,0.350000,0.219374
812.100420,0.125000,0.181573
812.133647,-0.150000,0.134629
812.166873,-0.275000,0.288043
812.200099,1.400000,0.727152
812.233325,0.575000,0.255869
812.266551,0.225000,0.397453
812.299776,0.275000,0.178098
812.333001,0.575000,0.167239
812.366226,1.300000,0.358818
812.399450,0.475000,0.267804
812.432674,0.625000,0.194856
812.465898,-0.250000,0.082916
812.499121,0.675000,0.302851
812.532345,0.775000,0.108253
812.565567,1.350000,0.592136
812.598790,1.825000,0.464186
812.632012,11.225000,0.954840
812.665234,79.800000,1.897696
812.698456,348.833333,5.312054
812.731677,581.550000,10.276946
812.764898,519.050000,5.150789
812.798119,233.375000,4.105998
812.831339,27.600000,0.881051
812.864559,5.000000,0.471699
812.897779,1.000000,0.564579
812.930998,0.375000,0.240767
812.964217,0.375000,0.188331
812.997436,-0.175000,0.054486
813.030655,0.100000,0.093541
813.063873,0.175000,0.163459
813.097091,0.650000,0.389711
813.130308,-0.075000,0.253414
813.163526,0.250000,0.103078
813.196743,0.200000,0.141421
813.229959,0.175000,0.188331
813.263176,0.375000,0.155624
813.296392,0.125000,0.181573
813.329607,-0.075000,0.041458
813.362823,-0.025000,0.102317
813.396038,0.700000,0.285044
813.429253,0.000000,0.079057
813.462467,0.300000,0.242384
813.495682,0.575000,0.355976
813.528895,0.550000,0.103078
813.562109,0.150000,0.216506
813.595322,-0.125000,0.073951
813.628535,0.225000,0.155624
813.661748,0.200000,0.035355
813.694960,0.025000,0.108253
813.728172,0.250000,0.147902
813.761384,0.250000,0.188746
813.794596,-0.100000,0.183712
813.827807,-0.550000,0.055902
813.861017,-0.100000,0.154110
813.894228,0.100000,0.169558
813.927438,0.450000,0.167705
813.960648,0.225000,0.041458
813.993858,0.325000,0.207289
814.027067,0.150000,0.090139
814.060276,0.000000,0.111803
814.093485,0.475000,0.238157
814.126693,0.450000,0.251247
814.159901,-0.175000,0.113880
814.193109,-0.300000,0.187083
814.226316,0.375000,0.073951
814.259523,0.350000,0.340037
814.292730,0.675000,0.235518
814.325936,0.475000,0.113880
814.359143,0.325000,0.373120
814.392348,0.300000,0.106066
814.425554,0.050000,0.114564
814.458759,0.050000,0.188746
814.491964,-0.475000,0.041458
814.525169,0.100000,0.079057
814.558373,0.250000,0.305164
814.591577,0.075000,0.143069
814.624781,0.025000,0.147373
814.657984,0.700000,0.196850
