#{
#    "background_file": "Backgrounds\\\\bg_787.999nm_16bin_197st_244en_10.0s_110g_4x_1_seq.txt",
#    "ccd_image_settings": [
#        1,
#        16,
#        1,
#        1600,
#        197,
#        244
#    ],
#    "ccd_temperature": "-88",
#    "cdRatios": {
#        "mean": 0.9094317241720222,
#        "std": 0.004248373503774924
#    },
#    "center_lambda": 788.0,
#    "comments": "",
#    "dark_region": 0.3176040996621089,
#    "date": "11/17/19 14:53:09PM",
#    "eff_field": 1.5,
#    "exposure": 10.0,
#    "fel_lambda": "15.0",
#    "fel_pol": "H",
#    "fel_pulses": 40,
#    "fel_pyro_cal": "0.017",
#    "fel_reprate": "1.07",
#    "fel_transmission": "1.0",
#    "fel_transmission_fits": {
#        "A": 1.0,
#        "C": 0.0,
#        "Mu": 0.0
#    },
#    "fieldInt": {
#        "mean": 10042.567954545455,
#        "std": 144.3381182520941
#    },
#    "fieldStrength": {
#        "mean": 45.97984090909091,
#        "std": 0.3306663101185211
#    },
#    "fpTime": {
#        "mean": 1.34618262957626,
#        "std": 0.0472882461403553
#    },
#    "gain": 110,
#    "grating": 3,
#    "images_in_sequence": [
#        "hsg_SpotD_crystal16_a00_HAna197.txt",
#        "hsg_SpotD_crystal16_a00_HAna198.txt",
#        "hsg_SpotD_crystal16_a00_HAna199.txt",
#        "hsg_SpotD_crystal16_a00_HAna200.txt"
#    ],
#    "nir_lambda": "820.9918",
#    "nir_pola": "00",
#    "nir_polg": "0",
#    "nir_power": "100.0",
#    "pulseEnergies": {
#        "mean": 2.2147045454545458,
#        "std": 0.0356490525656851
#    },
#    "pyroVoltage": {
#        "mean": 0.14325696815181033,
#        "std": 0.002713943972518732
#    },
#    "rotatorAngle": 0.0,
#    "sample_Temp": "58",
#    "sample_name": "L001218.C3",
#    "series": "SpotD_16_00",
#    "slits": "60",
#    "spec_step": "",
#    "window_trans": 0.92,
#    "y_max": 2,
#    "y_min": 1
#}
#
#
#
#
#
#
#
#
#
#
#
#
#
#
#
#
#
#
#
#
#
#
#
#
#
#
Wavelength,Signal,error
nm,arb. u.,arb.u.
Wavelength,SpotD_16_00,error
761.200217,0.075000,0.041458
761.233859,0.050000,0.055902
761.267500,0.225000,0.138632
761.301141,0.050000,0.114564
761.334781,0.100000,0.061237
761.368422,0.025000,0.265460
761.402062,0.275000,0.194856
761.435702,0.525000,0.357727
761.469342,0.300000,0.418330
761.502981,0.400000,0.203101
761.536620,-0.025000,0.129301
761.570259,0.050000,0.160078
761.603898,-0.000000,0.196850
761.637537,-0.025000,0.245904
761.671175,0.050000,0.025000
761.704813,0.375000,0.194856
761.738451,0.000000,0.106066
761.772088,-0.050000,0.082916
761.805726,-0.100000,0.093541
761.839363,-0.300000,0.100000
761.873000,-0.175000,0.041458
761.906636,0.125000,0.064952
761.940273,0.200000,0.061237
761.973909,0.325000,0.108253
762.007545,0.425000,0.281458
762.041180,-0.150000,0.129904
762.074816,0.000000,0.035355
762.108451,0.025000,0.041458
762.142086,0.725000,0.221853
762.175720,0.375000,0.302851
762.209355,0.125000,0.081968
762.242989,0.875000,0.619854
762.276623,0.050000,0.043301
762.310257,0.375000,0.119242
762.343890,0.250000,0.309233
762.377524,-0.050000,0.160078
762.411157,0.300000,0.203101
762.444789,0.825000,0.198037
762.478422,0.150000,0.114564
762.512054,0.100000,0.035355
762.545686,0.250000,0.082916
762.579318,0.575000,0.232849
762.612950,0.450000,0.238485
762.646581,0.025000,0.276981
762.680212,0.050000,0.075000
762.713843,0.500000,0.237171
762.747474,0.425000,0.073951
762.781104,-0.025000,0.096014
762.814734,-0.100000,0.203101
762.848364,-0.250000,0.055902
762.881994,0.125000,0.143069
762.915623,0.725000,0.434993
762.949252,0.200000,0.322102
762.982881,0.200000,0.136931
763.016510,0.050000,0.075000
763.050139,0.050000,0.219374
763.083767,0.225000,0.143069
763.117395,0.200000,0.127475
763.151023,0.175000,0.096014
763.184650,0.550000,0.129904
763.218277,-0.050000,0.182003
763.251904,0.050000,0.160078
763.285531,0.250000,0.114564
763.319158,0.325000,0.113880
763.352784,0.800000,0.289396
763.386410,0.200000,0.285044
763.420036,0.975000,0.721435
763.453661,1.450000,0.453459
763.487287,0.625000,0.501716
763.520912,-0.775000,0.383039
763.554537,0.500000,0.382426
763.588161,0.100000,0.212132
763.621786,0.000000,0.061237
763.655410,0.250000,0.090139
763.689034,-0.175000,0.073951
763.722657,0.225000,0.143069
763.756281,0.225000,0.108253
763.789904,-0.025000,0.021651
763.823527,0.325000,0.188331
763.857150,0.025000,0.198037
763.890772,-0.200000,0.061237
763.924394,0.075000,0.096014
763.958016,0.300000,0.093541
763.991638,0.900000,0.306186
764.025260,0.125000,0.096014
764.058881,0.450000,0.246221
764.092502,-0.350000,0.055902
764.126123,0.275000,0.134048
764.159743,-0.000000,0.086603
764.193363,0.075000,0.163459
764.226983,0.025000,0.089268
764.260603,0.175000,0.073951
764.294223,0.200000,0.289396
764.327842,0.375000,0.134048
764.361461,0.600000,0.257391
764.395080,0.200000,0.215058
764.428699,0.000000,0.070711
764.462317,0.525000,0.281458
764.495935,-0.175000,0.041458
764.529553,0.100000,0.145774
764.563170,0.200000,0.093541
764.596788,0.175000,0.021651
764.630405,0.075000,0.113880
764.664022,0.350000,0.251247
764.697638,0.125000,0.096014
764.731255,0.225000,0.054486
764.764871,0.200000,0.154110
764.798487,-0.100000,0.079057
764.832103,0.100000,0.106066
764.865718,0.200000,0.127475
764.899333,0.600000,0.367423
764.932948,-0.050000,0.043301
764.966563,0.200000,0.280624
765.000177,0.175000,0.073951
765.033792,0.125000,0.064952
765.067406,0.575000,0.221853
765.101019,0.050000,0.167705
765.134633,-0.350000,0.103078
765.168246,0.150000,0.082916
765.201859,0.050000,0.055902
765.235472,0.225000,0.041458
765.269084,0.300000,0.187083
765.302697,-0.125000,0.041458
765.336309,0.375000,0.143069
765.369920,0.550000,0.340037
765.403532,-0.050000,0.114564
765.437143,-0.125000,0.054486
765.470754,0.300000,0.061237
765.504365,0.150000,0.114564
765.537976,0.675000,0.276981
765.571586,-0.125000,0.041458
765.605196,-0.125000,0.096014
765.638806,0.100000,0.122474
765.672416,0.300000,0.203101
765.706025,0.350000,0.103078
765.739634,0.275000,0.054486
765.773243,0.175000,0.054486
765.806851,0.175000,0.054486
765.840460,0.025000,0.124373
765.874068,0.175000,0.134048
765.907676,0.025000,0.119242
765.941284,0.225000,0.064952
765.974891,0.225000,0.073951
766.008498,0.050000,0.082916
766.042105,-0.050000,0.043301
766.075712,-0.200000,0.070711
766.109318,-0.150000,0.114564
766.142924,0.175000,0.134048
766.176530,-0.400000,0.035355
766.210136,0.100000,0.154110
766.243741,0.850000,0.258602
766.277347,0.075000,0.096014
766.310951,-0.150000,0.090139
766.344556,0.575000,0.276981
766.378161,0.375000,0.096014
766.411765,-0.100000,0.111803
766.445369,0.150000,0.075000
766.478973,0.100000,0.061237
766.512576,0.350000,0.334477
766.546179,0.025000,0.064952
766.579782,0.100000,0.145774
766.613385,0.125000,0.113880
766.646988,-0.150000,0.025000
766.680590,0.050000,0.043301
766.714192,0.125000,0.054486
766.747794,0.075000,0.073951
766.781395,0.575000,0.143069
766.814996,-0.275000,0.108253
766.848597,-0.225000,0.064952
766.882198,0.275000,0.129301
766.915799,0.125000,0.096014
766.949399,0.350000,0.195256
766.982999,0.250000,0.075000
767.016599,-0.075000,0.174553
767.050198,0.300000,0.093541
767.083798,0.100000,0.093541
767.117397,0.100000,0.050000
767.150996,0.075000,0.124373
767.184594,-0.400000,0.050000
767.218193,0.000000,0.141421
767.251791,-0.150000,0.103078
767.285389,-0.275000,0.054486
767.318986,0.425000,0.318934
767.352583,0.650000,0.227761
767.386181,0.150000,0.219374
767.419777,-0.200000,0.035355
767.453374,0.200000,0.035355
767.486970,-0.225000,0.041458
767.520567,0.275000,0.089268
767.554162,0.000000,0.079057
767.587758,0.075000,0.041458
767.621353,0.425000,0.102317
767.654949,0.125000,0.124373
767.688543,0.400000,0.079057
767.722138,0.250000,0.143614
767.755732,0.150000,0.075000
767.789327,0.275000,0.188331
767.822921,-0.150000,0.082916
767.856514,0.400000,0.297909
767.890108,0.700000,0.358818
767.923701,0.325000,0.188331
767.957294,0.225000,0.155624
767.990886,0.550000,0.178536
768.024479,0.100000,0.093541
768.058071,0.500000,0.203101
768.091663,0.150000,0.279508
768.125255,0.075000,0.188331
768.158846,0.250000,0.082916
768.192437,-0.200000,0.035355
768.226028,0.350000,0.134629
768.259619,0.225000,0.240767
768.293209,0.150000,0.391312
768.326799,0.100000,0.106066
768.360389,0.300000,0.035355
768.393979,0.100000,0.136931
768.427568,0.125000,0.143069
768.461158,-0.025000,0.054486
768.494747,-0.025000,0.163459
768.528335,0.175000,0.108253
768.561924,0.600000,0.289396
768.595512,0.275000,0.181573
768.629100,0.350000,0.055902
768.662688,0.125000,0.155624
768.696275,0.800000,0.488621
768.729862,0.300000,0.127475
768.763449,-0.075000,0.073951
768.797036,-0.025000,0.113880
768.830623,0.250000,0.043301
768.864209,0.175000,0.041458
768.897795,0.200000,0.093541
768.931381,0.300000,0.061237
768.964966,-0.050000,0.090139
768.998551,0.200000,0.061237
769.032136,-0.150000,0.055902
769.065721,0.100000,0.173205
769.099305,-0.100000,0.061237
769.132890,0.125000,0.041458
769.166474,0.575000,0.296595
769.200057,0.075000,0.108253
769.233641,0.075000,0.041458
769.267224,0.175000,0.174553
769.300807,0.425000,0.486538
769.334390,-0.050000,0.055902
769.367972,0.650000,0.167705
769.401555,0.075000,0.096014
769.435137,-0.050000,0.134629
769.468718,0.250000,0.152069
769.502300,0.050000,0.075000
769.535881,-0.175000,0.096014
769.569462,-0.400000,0.050000
769.603043,0.075000,0.167239
769.636623,0.475000,0.240767
769.670204,-0.000000,0.079057
769.703784,1.300000,0.276134
769.737364,0.575000,0.188331
769.770943,0.175000,0.102317
769.804522,-0.175000,0.119242
769.838101,-0.050000,0.025000
769.871680,0.150000,0.225000
769.905259,0.275000,0.240767
769.938837,0.050000,0.075000
769.972415,0.125000,0.207289
770.005993,0.600000,0.206155
770.039570,0.325000,0.194856
770.073147,0.100000,0.035355
770.106724,0.075000,0.119242
770.140301,0.325000,0.129301
770.173878,0.175000,0.073951
770.207454,0.075000,0.096014
770.241030,0.050000,0.055902
770.274606,0.350000,0.178536
770.308181,0.200000,0.070711
770.341757,0.100000,0.061237
770.375332,0.250000,0.114564
770.408906,0.150000,0.090139
770.442481,-0.150000,0.175000
770.476055,-0.200000,0.061237
770.509629,0.600000,0.209165
770.543203,0.250000,0.195256
770.576776,-0.050000,0.055902
770.610350,0.800000,0.520817
770.643923,0.050000,0.055902
770.677495,0.225000,0.138632
770.711068,0.300000,0.070711
770.744640,0.125000,0.054486
770.778212,0.100000,0.061237
770.811784,-0.050000,0.075000
770.845356,-0.075000,0.113880
770.878927,0.150000,0.043301
770.912498,0.475000,0.308980
770.946069,0.025000,0.102317
770.979639,0.275000,0.216145
771.013209,0.175000,0.096014
771.046779,-0.375000,0.081968
771.080349,0.750000,0.493077
771.113919,-0.075000,0.041458
771.147488,0.325000,0.089268
771.181057,0.125000,0.054486
771.214626,0.000000,0.035355
771.248194,0.075000,0.073951
771.281762,-0.050000,0.025000
771.315330,0.000000,0.035355
771.348898,0.050000,0.075000
771.382465,-0.125000,0.119242
771.416033,0.375000,0.167239
771.449600,0.300000,0.093541
771.483166,1.000000,0.145774
771.516733,1.050000,0.433734
771.550299,0.300000,0.187083
771.583865,0.575000,0.296595
771.617431,0.300000,0.262202
771.650996,0.425000,0.073951
771.684562,0.275000,0.184983
771.718127,0.175000,0.194856
771.751691,0.100000,0.035355
771.785256,-0.050000,0.055902
771.818820,0.050000,0.108972
771.852384,0.350000,0.114564
771.885948,0.000000,0.035355
771.919511,0.075000,0.102317
771.953074,0.400000,0.136931
771.986637,0.275000,0.073951
772.020200,0.375000,0.089268
772.053762,0.100000,0.035355
772.087325,0.050000,0.134629
772.120887,0.000000,0.136931
772.154448,0.350000,0.248747
772.188010,0.150000,0.025000
772.221571,0.375000,0.304908
772.255132,0.250000,0.090139
772.288692,0.225000,0.147373
772.322253,0.175000,0.221853
772.355813,0.425000,0.253414
772.389373,-0.025000,0.143069
772.422933,-0.375000,0.081968
772.456492,0.100000,0.106066
772.490051,0.350000,0.082916
772.523610,0.250000,0.163936
772.557169,0.900000,0.501248
772.590727,0.000000,0.035355
772.624285,0.250000,0.055902
772.657843,0.250000,0.103078
772.691401,-0.050000,0.143614
772.724958,0.200000,0.061237
772.758515,0.100000,0.061237
772.792072,0.075000,0.089268
772.825629,-0.200000,0.000000
772.859185,0.500000,0.242384
772.892741,-0.075000,0.124373
772.926297,0.375000,0.178098
772.959853,0.075000,0.081968
772.993408,-0.675000,0.054486
773.026963,0.050000,0.219374
773.060518,0.250000,0.114564
773.094073,-0.100000,0.070711
773.127627,0.250000,0.090139
773.161181,0.500000,0.117260
773.194735,0.600000,0.154110
773.228289,0.325000,0.285865
773.261842,0.550000,0.129904
773.295395,1.875000,0.599349
773.328948,1.075000,0.341641
773.362500,0.450000,0.160078
773.396053,0.075000,0.102317
773.429605,0.475000,0.167239
773.463157,1.075000,0.524851
773.496708,0.375000,0.188331
773.530260,-0.375000,0.041458
773.563811,-0.075000,0.064952
773.597361,-0.075000,0.089268
773.630912,-0.000000,0.093541
773.664462,0.625000,0.213234
773.698012,0.000000,0.079057
773.731562,0.275000,0.201168
773.765111,0.050000,0.082916
773.798661,0.225000,0.054486
773.832210,0.225000,0.113880
773.865758,0.175000,0.054486
773.899307,0.425000,0.213234
773.932855,0.150000,0.075000
773.966403,0.025000,0.108253
773.999951,0.150000,0.103078
774.033498,0.350000,0.160078
774.067046,0.250000,0.075000
774.100593,0.275000,0.096014
774.134139,0.300000,0.079057
774.167686,0.050000,0.103078
774.201232,0.375000,0.096014
774.234778,0.250000,0.055902
774.268324,0.200000,0.145774
774.301869,0.275000,0.151554
774.335414,-0.050000,0.152069
774.368959,0.200000,0.106066
774.402504,0.250000,0.043301
774.436048,0.075000,0.194856
774.469592,0.275000,0.096014
774.503136,0.175000,0.073951
774.536680,0.200000,0.035355
774.570223,0.300000,0.141421
774.603766,0.550000,0.275000
774.637309,0.425000,0.129301
774.670852,0.050000,0.103078
774.704394,-0.100000,0.079057
774.737936,0.075000,0.119242
774.771478,0.075000,0.108253
774.805020,-0.025000,0.143069
774.838561,0.300000,0.079057
774.872102,0.425000,0.181573
774.905643,0.400000,0.203101
774.939183,0.275000,0.119242
774.972724,0.625000,0.253414
775.006264,0.725000,0.527227
775.039804,1.025000,0.313000
775.073343,2.650000,0.400780
775.106882,1.975000,0.350669
775.140421,1.175000,0.194856
775.173960,-0.175000,0.143069
775.207499,-0.025000,0.073951
775.241037,0.250000,0.129904
775.274575,0.100000,0.035355
775.308113,0.050000,0.129904
775.341650,0.400000,0.127475
775.375187,0.175000,0.096014
775.408724,0.100000,0.209165
775.442261,0.150000,0.178536
775.475798,0.375000,0.224653
775.509334,0.125000,0.041458
775.542870,-0.075000,0.041458
775.576405,-0.100000,0.127475
775.609941,0.350000,0.134629
775.643476,0.175000,0.041458
775.677011,-0.125000,0.181573
775.710546,0.500000,0.162019
775.744080,0.550000,0.305164
775.777614,0.050000,0.152069
775.811148,0.025000,0.064952
775.844682,-0.000000,0.093541
775.878215,-0.050000,0.055902
775.911748,0.125000,0.167239
775.945281,0.150000,0.055902
775.978814,-0.125000,0.081968
776.012346,0.125000,0.089268
776.045878,0.225000,0.281458
776.079410,0.275000,0.143069
776.112941,0.100000,0.035355
776.146473,0.000000,0.106066
776.180004,0.125000,0.089268
776.213535,0.450000,0.043301
776.247065,0.050000,0.082916
776.280595,0.100000,0.079057
776.314125,0.100000,0.035355
776.347655,0.025000,0.073951
776.381185,-0.125000,0.021651
776.414714,0.450000,0.114564
776.448243,0.050000,0.090139
776.481772,0.350000,0.286138
776.515300,0.050000,0.055902
776.548828,0.000000,0.035355
776.582356,0.025000,0.054486
776.615884,0.100000,0.079057
776.649411,0.175000,0.041458
776.682938,0.475000,0.213234
776.716465,0.050000,0.082916
776.749992,0.175000,0.073951
776.783518,0.350000,0.246221
776.817044,1.300000,0.141421
776.850570,1.625000,0.397453
776.884096,2.025000,0.601431
776.917621,0.850000,0.449305
776.951146,0.475000,0.151554
776.984671,-0.125000,0.163459
777.018196,0.400000,0.271570
777.051720,0.125000,0.081968
777.085244,0.200000,0.035355
777.118768,-0.300000,0.035355
777.152292,0.200000,0.093541
777.185815,0.325000,0.188331
777.219338,0.125000,0.073951
777.252861,0.200000,0.150000
777.286383,0.200000,0.187083
777.319905,-0.075000,0.119242
777.353427,0.300000,0.079057
777.386949,0.425000,0.174553
777.420471,0.425000,0.167239
777.453992,-0.025000,0.041458
777.487513,0.225000,0.064952
777.521033,-0.400000,0.070711
777.554554,-0.050000,0.103078
777.588074,0.350000,0.192029
777.621594,0.325000,0.041458
777.655114,0.350000,0.182003
777.688633,0.175000,0.073951
777.722152,0.400000,0.176777
777.755671,0.350000,0.275000
777.789190,0.000000,0.122474
777.822708,-0.175000,0.041458
777.856226,0.200000,0.035355
777.889744,0.250000,0.090139
777.923261,0.275000,0.184983
777.956779,0.200000,0.050000
777.990296,0.350000,0.125000
778.023812,0.275000,0.041458
778.057329,0.400000,0.297909
778.090845,0.350000,0.055902
778.124361,0.175000,0.021651
778.157877,0.125000,0.113880
778.191392,0.275000,0.113880
778.224908,-0.025000,0.041458
778.258423,0.450000,0.275000
778.291937,0.125000,0.124373
778.325452,0.200000,0.035355
778.358966,-0.050000,0.075000
778.392480,0.150000,0.075000
778.425993,0.125000,0.089268
778.459507,0.125000,0.096014
778.493020,0.175000,0.064952
778.526533,0.050000,0.103078
778.560045,0.050000,0.188746
778.593558,0.275000,0.216145
778.627070,0.725000,0.210283
778.660582,1.875000,0.436427
778.694093,2.500000,0.215058
778.727605,2.825000,0.480072
778.761116,0.950000,0.207666
778.794626,1.000000,0.262202
778.828137,0.250000,0.134629
778.861647,0.125000,0.073951
778.895157,0.350000,0.152069
778.928667,0.150000,0.108972
778.962176,0.575000,0.198037
778.995686,0.200000,0.050000
779.029194,0.450000,0.114564
779.062703,0.275000,0.124373
779.096212,0.050000,0.055902
779.129720,0.150000,0.129904
779.163228,0.050000,0.055902
779.196735,0.275000,0.073951
779.230243,-0.050000,0.432290
779.263750,0.325000,0.155624
779.297257,0.125000,0.167239
779.330763,-0.100000,0.093541
779.364269,0.050000,0.103078
779.397776,0.050000,0.055902
779.431281,0.250000,0.195256
779.464787,0.200000,0.093541
779.498292,0.250000,0.025000
779.531797,0.300000,0.106066
779.565302,0.450000,0.188746
779.598806,0.050000,0.055902
779.632311,0.325000,0.124373
779.665814,0.350000,0.090139
779.699318,0.200000,0.093541
779.732822,0.425000,0.159589
779.766325,0.250000,0.114564
779.799828,0.100000,0.093541
779.833330,0.125000,0.041458
779.866833,0.000000,0.117260
779.900335,0.300000,0.050000
779.933837,0.475000,0.384667
779.967338,-0.025000,0.108253
780.000840,0.250000,0.160078
780.034341,-0.025000,0.174553
780.067841,0.600000,0.262202
780.101342,0.125000,0.081968
780.134842,0.500000,0.190394
780.168342,-0.175000,0.064952
780.201842,0.250000,0.025000
780.235341,0.225000,0.113880
780.268841,0.550000,0.325000
780.302340,0.150000,0.090139
780.335838,0.275000,0.143069
780.369337,-0.100000,0.035355
780.402835,0.850000,0.207666
780.436333,1.975000,0.433554
780.469830,3.175000,0.374792
780.503328,3.825000,0.616821
780.536825,2.900000,0.337268
780.570322,2.075000,0.643598
780.603818,0.900000,0.358818
780.637315,0.450000,0.152069
780.670811,-0.125000,0.041458
780.704306,0.425000,0.267804
780.737802,0.650000,0.178536
780.771297,0.425000,0.191621
780.804792,0.400000,0.289396
780.838287,0.175000,0.041458
780.871781,0.300000,0.145774
780.905276,-0.125000,0.089268
780.938770,0.025000,0.089268
780.972263,-0.025000,0.041458
781.005757,0.200000,0.086603
781.039250,0.275000,0.129301
781.072743,0.125000,0.041458
781.106235,0.375000,0.151554
781.139728,0.000000,0.070711
781.173220,0.175000,0.054486
781.206712,0.475000,0.240767
781.240203,0.200000,0.079057
781.273694,0.175000,0.159589
781.307185,0.475000,0.163459
781.340676,0.100000,0.061237
781.374167,0.175000,0.129301
781.407657,0.275000,0.073951
781.441147,0.100000,0.106066
781.474636,0.250000,0.129904
781.508126,0.325000,0.426285
781.541615,0.250000,0.178536
781.575104,0.250000,0.075000
781.608593,0.050000,0.108972
781.642081,0.000000,0.079057
781.675569,0.425000,0.198037
781.709057,0.500000,0.247487
781.742544,0.350000,0.143614
781.776032,-0.175000,0.089268
781.809519,-0.050000,0.090139
781.843006,0.275000,0.054486
781.876492,0.275000,0.021651
781.909978,0.100000,0.061237
781.943464,0.250000,0.055902
781.976950,0.175000,0.064952
782.010435,0.400000,0.209165
782.043921,0.275000,0.096014
782.077406,0.475000,0.147373
782.110890,0.725000,0.313000
782.144375,0.025000,0.143069
782.177859,0.325000,0.108253
782.211343,0.500000,0.196850
782.244826,1.400000,0.308221
782.278309,2.700000,0.540833
782.311792,6.875000,0.879897
782.345275,6.175000,0.772476
782.378758,5.475000,0.178098
782.412240,2.000000,0.372492
782.445722,0.775000,0.332368
782.479204,0.950000,0.371652
782.512685,-0.025000,0.089268
782.546166,0.050000,0.075000
782.579647,0.575000,0.170935
782.613128,0.450000,0.246221
782.646608,0.125000,0.159589
782.680088,0.125000,0.089268
782.713568,0.025000,0.181573
782.747048,0.250000,0.114564
782.780527,-0.075000,0.194856
782.814006,0.200000,0.106066
782.847485,-0.025000,0.108253
782.880963,-0.100000,0.061237
782.914442,-0.025000,0.108253
782.947920,0.300000,0.127475
782.981397,0.400000,0.231840
783.014875,0.175000,0.021651
783.048352,-0.025000,0.054486
783.081829,0.125000,0.089268
783.115306,0.375000,0.073951
783.148782,-0.075000,0.041458
783.182258,-0.250000,0.103078
783.215734,0.775000,0.417395
783.249209,-0.250000,0.055902
783.282685,0.450000,0.332603
783.316160,-0.025000,0.073951
783.349635,0.075000,0.054486
783.383109,-0.100000,0.070711
783.416583,-0.050000,0.075000
783.450057,0.000000,0.086603
783.483531,-0.025000,0.096014
783.517004,0.600000,0.259808
783.550477,0.175000,0.064952
783.583950,0.375000,0.089268
783.617423,0.750000,0.182003
783.650895,0.525000,0.224653
783.684367,0.225000,0.147373
783.717839,-0.425000,0.073951
783.751311,0.225000,0.260708
783.784782,0.225000,0.041458
783.818253,0.275000,0.188331
783.851724,0.225000,0.089268
783.885194,0.200000,0.050000
783.918665,0.000000,0.050000
783.952134,0.250000,0.025000
783.985604,0.400000,0.196850
784.019074,0.350000,0.075000
784.052543,1.350000,0.326917
784.086012,3.175000,0.143069
784.119480,4.625000,0.501716
784.152948,7.000000,0.369121
784.186416,9.200000,0.831414
784.219884,9.250000,0.553963
784.253352,4.375000,0.774092
784.286819,0.700000,0.382426
784.320286,0.375000,0.155624
784.353753,0.125000,0.073951
784.387219,0.200000,0.061237
784.420685,0.075000,0.041458
784.454151,0.325000,0.073951
784.487617,-0.125000,0.041458
784.521082,0.225000,0.054486
784.554547,0.375000,0.073951
784.588012,0.300000,0.257391
784.621477,0.175000,0.073951
784.654941,0.225000,0.089268
784.688405,0.225000,0.155624
784.721869,0.075000,0.041458
784.755332,-0.025000,0.096014
784.788795,0.200000,0.093541
784.822258,0.425000,0.265460
784.855721,0.150000,0.055902
784.889183,0.150000,0.055902
784.922646,0.175000,0.163459
784.956107,0.200000,0.061237
784.989569,-0.050000,0.055902
785.023030,0.050000,0.090139
785.056491,0.475000,0.364649
785.089952,0.150000,0.075000
785.123413,0.025000,0.089268
785.156873,-0.025000,0.178098
785.190333,0.575000,0.108253
785.223792,0.250000,0.043301
785.257252,0.200000,0.196850
785.290711,0.125000,0.096014
785.324170,-0.050000,0.055902
785.357629,0.500000,0.196850
785.391087,0.425000,0.178098
785.424545,0.325000,0.089268
785.458003,0.400000,0.106066
785.491460,0.125000,0.096014
785.524918,0.275000,0.054486
785.558375,0.025000,0.041458
785.591831,0.125000,0.041458
785.625288,0.200000,0.154110
785.658744,0.175000,0.041458
785.692200,-0.025000,0.021651
785.725655,0.125000,0.054486
785.759111,0.375000,0.129301
785.792566,0.075000,0.073951
785.826021,0.550000,0.238485
785.859475,0.400000,0.196850
785.892930,0.900000,0.322102
785.926384,2.225000,0.267804
785.959837,4.475000,0.350669
785.993291,7.700000,0.900000
786.026744,11.050000,0.388104
786.060197,9.075000,1.454895
786.093649,2.066667,0.181430
786.127102,1.750000,0.665676
786.160554,1.150000,0.684197
786.194006,0.475000,0.138632
786.227457,0.300000,0.035355
786.260909,0.225000,0.021651
786.294360,0.000000,0.035355
786.327810,-0.125000,0.073951
786.361261,0.350000,0.055902
786.394711,-0.050000,0.043301
786.428161,0.275000,0.134048
786.461611,0.150000,0.055902
786.495060,0.650000,0.248747
786.528509,0.025000,0.041458
786.561958,0.225000,0.073951
786.595407,0.200000,0.111803
786.628855,0.400000,0.127475
786.662303,-0.075000,0.138632
786.695751,0.175000,0.113880
786.729198,0.425000,0.170935
786.762645,0.075000,0.021651
786.796092,0.225000,0.258300
786.829539,0.150000,0.043301
786.862985,-0.025000,0.073951
786.896431,0.050000,0.075000
786.929877,0.475000,0.119242
786.963323,0.200000,0.061237
786.996768,0.250000,0.167705
787.030213,0.025000,0.108253
787.063658,0.075000,0.155624
787.097102,0.350000,0.175000
787.130547,0.250000,0.294746
787.163991,-0.225000,0.089268
787.197434,-0.075000,0.124373
787.230878,0.475000,0.089268
787.264321,0.250000,0.025000
787.297764,-0.050000,0.055902
787.331206,0.250000,0.082916
787.364648,0.175000,0.096014
787.398090,0.225000,0.021651
787.431532,0.375000,0.124373
787.464974,0.000000,0.061237
787.498415,-0.075000,0.163459
787.531856,0.400000,0.351781
787.565296,-0.075000,0.113880
787.598737,0.300000,0.070711
787.632177,0.500000,0.127475
787.665617,-0.100000,0.061237
787.699056,0.350000,0.192029
787.732496,0.425000,0.357727
787.765935,0.850000,0.340037
787.799373,4.700000,0.162019
787.832812,8.775000,0.281458
787.866250,14.175000,1.086494
787.899688,12.200000,1.159202
787.933126,9.150000,0.858414
787.966563,2.775000,0.250936
788.000000,1.650000,0.313249
788.033437,0.150000,0.178536
788.066873,0.350000,0.143614
788.100310,0.325000,0.096014
788.133746,0.400000,0.106066
788.167181,0.250000,0.090139
788.200617,0.350000,0.055902
788.234052,0.300000,0.154110
788.267487,-0.075000,0.089268
788.300921,0.100000,0.061237
788.334356,0.325000,0.230149
788.367790,0.475000,0.155624
788.401224,0.300000,0.079057
788.434657,0.875000,0.534293
788.468090,-0.025000,0.102317
788.501523,0.350000,0.114564
788.534956,0.125000,0.021651
788.568389,0.200000,0.127475
788.601821,0.200000,0.117260
788.635253,0.525000,0.167239
788.668684,0.075000,0.021651
788.702116,0.325000,0.113880
788.735547,0.475000,0.337963
788.768977,0.750000,0.279508
788.802408,0.550000,0.188746
788.835838,0.325000,0.143069
788.869268,0.525000,0.089268
788.902698,0.225000,0.147373
788.936127,0.275000,0.163459
788.969556,0.075000,0.073951
789.002985,0.375000,0.089268
789.036414,0.775000,0.073951
789.069842,0.025000,0.021651
789.103270,0.425000,0.151554
789.136698,0.175000,0.041458
789.170125,0.150000,0.163936
789.203552,0.250000,0.103078
789.236979,0.425000,0.041458
789.270406,-0.075000,0.108253
789.303832,0.250000,0.082916
789.337258,0.575000,0.224653
789.370684,0.300000,0.291548
789.404110,0.400000,0.035355
789.437535,0.425000,0.073951
789.470960,0.100000,0.070711
789.504385,0.150000,0.082916
789.537809,0.325000,0.096014
789.571233,0.350000,0.055902
789.604657,1.025000,0.230149
789.638081,2.950000,0.576086
789.671504,8.650000,1.007782
789.704927,11.633333,0.283578
789.738350,21.950000,1.409122
789.771772,18.875000,1.463034
789.805195,10.950000,1.169669
789.838617,3.750000,0.328824
789.872038,1.350000,0.279508
789.905460,-0.175000,0.204252
789.938881,0.150000,0.147902
789.972302,0.050000,0.055902
790.005722,0.200000,0.061237
790.039143,0.100000,0.127475
790.072563,0.850000,0.292617
790.105982,0.150000,0.103078
790.139402,0.325000,0.184983
790.172821,-0.125000,0.124373
790.206240,0.175000,0.102317
790.239658,0.375000,0.041458
790.273077,0.650000,0.114564
790.306495,0.100000,0.035355
790.339913,0.225000,0.073951
790.373330,0.350000,0.125000
790.406747,0.275000,0.096014
790.440164,0.625000,0.355976
790.473581,0.250000,0.114564
790.506997,0.150000,0.090139
790.540414,0.100000,0.145774
790.573829,0.275000,0.064952
790.607245,0.500000,0.061237
790.640660,0.200000,0.035355
790.674075,0.550000,0.163936
790.707490,0.175000,0.054486
790.740904,0.300000,0.035355
790.774319,0.450000,0.219374
790.807733,0.275000,0.041458
790.841146,0.575000,0.143069
790.874560,-0.125000,0.096014
790.907973,0.200000,0.061237
790.941385,0.525000,0.147373
790.974798,0.175000,0.073951
791.008210,0.650000,0.075000
791.041622,0.175000,0.134048
791.075034,0.450000,0.114564
791.108445,0.325000,0.138632
791.141856,0.325000,0.155624
791.175267,-0.050000,0.043301
791.208678,0.300000,0.093541
791.242088,0.650000,0.175000
791.275498,0.400000,0.061237
791.308908,0.875000,0.272431
791.342317,0.750000,0.283945
791.375726,0.250000,0.075000
791.409135,0.325000,0.167239
791.442544,0.175000,0.129301
791.475952,2.100000,0.379144
791.509360,4.525000,0.397453
791.542768,14.000000,0.790569
791.576176,28.750000,2.362864
791.609583,40.300000,1.306235
791.642990,39.275000,2.099219
791.676396,19.775000,1.335747
791.709803,5.925000,1.275919
791.743209,2.950000,0.460299
791.776615,0.975000,0.394295
791.810020,0.700000,0.176777
791.843425,0.375000,0.210283
791.876830,-0.150000,0.246221
791.910235,0.400000,0.106066
791.943640,-0.075000,0.064952
791.977044,-0.175000,0.155624
792.010448,-0.050000,0.043301
792.043851,0.150000,0.043301
792.077254,-0.050000,0.103078
792.110658,0.200000,0.061237
792.144060,0.300000,0.215058
792.177463,0.350000,0.114564
792.210865,0.200000,0.145774
792.244267,0.100000,0.093541
792.277668,0.300000,0.154110
792.311070,0.200000,0.061237
792.344471,0.375000,0.021651
792.377872,0.250000,0.090139
792.411272,0.500000,0.237171
792.444672,0.175000,0.134048
792.478072,0.350000,0.178536
792.511472,0.125000,0.201168
792.544871,0.400000,0.111803
792.578271,0.075000,0.163459
792.611669,0.275000,0.113880
792.645068,0.075000,0.081968
792.678466,-0.075000,0.119242
792.711864,0.300000,0.079057
792.745262,0.200000,0.093541
792.778659,0.200000,0.070711
792.812056,0.125000,0.134048
792.845453,0.500000,0.079057
792.878850,0.775000,0.300780
792.912246,0.375000,0.089268
792.945642,0.000000,0.050000
792.979038,0.225000,0.089268
793.012433,0.475000,0.129301
793.045829,0.400000,0.183712
793.079223,0.275000,0.308980
793.112618,-0.100000,0.086603
793.146012,0.450000,0.025000
793.179406,0.050000,0.114564
793.212800,-0.025000,0.041458
793.246194,0.225000,0.119242
793.279587,0.850000,0.394493
793.312980,0.700000,0.196850
793.346373,0.350000,0.160078
793.379765,2.700000,0.196850
793.413157,11.833333,0.328507
793.446549,27.675000,0.662736
793.479940,39.866667,1.338532
793.513332,51.300000,2.228508
793.546723,28.800000,0.671751
793.580113,8.375000,0.859778
793.613504,3.200000,0.586302
793.646894,0.325000,0.134048
793.680284,0.700000,0.215058
793.713673,0.325000,0.113880
793.747062,0.325000,0.089268
793.780451,0.100000,0.122474
793.813840,0.275000,0.163459
793.847228,0.550000,0.129904
793.880617,0.250000,0.143614
793.914004,0.425000,0.170935
793.947392,-0.075000,0.167239
793.980779,0.200000,0.150000
794.014166,-0.000000,0.093541
794.047553,0.200000,0.106066
794.080940,0.600000,0.122474
794.114326,0.275000,0.054486
794.147712,0.450000,0.279508
794.181097,0.350000,0.225000
794.214483,0.800000,0.377492
794.247868,0.725000,0.255869
794.281252,0.375000,0.151554
794.314637,-0.125000,0.108253
794.348021,0.600000,0.079057
794.381405,-0.000000,0.093541
794.414788,0.525000,0.191621
794.448172,0.475000,0.210283
794.481555,0.350000,0.343693
794.514938,0.200000,0.237171
794.548320,0.125000,0.064952
794.581702,0.600000,0.035355
794.615084,0.300000,0.154110
794.648466,0.425000,0.073951
794.681847,0.525000,0.143069
794.715228,0.675000,0.368061
794.748609,0.600000,0.388909
794.781990,0.800000,0.654790
794.815370,1.325000,0.366359
794.848750,0.500000,0.106066
794.882129,0.225000,0.240767
794.915509,0.325000,0.089268
794.948888,0.150000,0.134629
794.982267,0.625000,0.102317
795.015645,0.100000,0.209165
795.049023,0.275000,0.073951
795.082401,0.250000,0.103078
795.115779,0.325000,0.194856
795.149156,0.625000,0.300780
795.182534,0.725000,0.194856
795.215910,0.825000,0.163459
795.249287,3.800000,0.515994
795.282663,9.475000,0.779724
795.316039,34.200000,1.055344
795.349415,59.933333,1.472385
795.382790,85.075000,1.621101
795.416165,67.766667,0.550379
795.449540,29.625000,0.952874
795.482915,8.325000,0.887676
795.516289,2.150000,0.410030
795.549663,0.525000,0.174553
795.583037,0.300000,0.061237
795.616410,0.300000,0.061237
795.649783,0.275000,0.296595
795.683156,0.475000,0.129301
795.716529,0.300000,0.127475
795.749901,-0.200000,0.093541
795.783273,0.800000,0.348210
795.816645,0.100000,0.183712
795.850016,0.350000,0.195256
795.883387,0.325000,0.041458
795.916758,0.475000,0.113880
795.950129,0.500000,0.226385
795.983499,0.050000,0.025000
796.016869,0.300000,0.154110
796.050239,-0.225000,0.108253
796.083608,0.425000,0.081968
796.116977,0.450000,0.134629
796.150346,0.150000,0.143614
796.183714,0.350000,0.082916
796.217083,0.925000,0.306951
796.250451,0.125000,0.102317
796.283818,0.325000,0.089268
796.317186,0.450000,0.182003
796.350553,0.475000,0.178098
796.383920,-0.025000,0.021651
796.417286,0.725000,0.147373
796.450653,0.225000,0.073951
796.484019,0.800000,0.289396
796.517384,0.600000,0.322102
796.550750,0.850000,0.309233
796.584115,0.325000,0.124373
796.617480,-0.025000,0.054486
796.650844,0.475000,0.108253
796.684209,0.350000,0.207666
796.717573,0.525000,0.283670
796.750936,0.450000,0.055902
796.784300,0.525000,0.198037
796.817663,0.750000,0.204634
796.851026,0.250000,0.055902
796.884388,0.025000,0.073951
796.917751,0.450000,0.082916
796.951113,0.300000,0.079057
796.984474,0.475000,0.134048
797.017836,0.400000,0.106066
797.051197,0.325000,0.021651
797.084558,0.300000,0.127475
797.117918,1.100000,0.382426
797.151279,4.075000,0.524851
797.184639,15.700000,0.844097
797.217998,38.550000,1.880658
797.251358,73.700000,2.973844
797.284717,93.933333,2.439604
797.318076,68.550000,2.405852
797.351434,22.366667,1.561383
797.384793,5.575000,0.695858
797.418151,2.375000,0.368061
797.451508,1.025000,0.418890
797.484866,0.925000,0.188331
797.518223,0.550000,0.134629
797.551580,0.225000,0.054486
797.584936,-0.050000,0.043301
797.618292,0.000000,0.106066
797.651648,0.650000,0.103078
797.685004,0.225000,0.041458
797.718360,0.550000,0.114564
797.751715,0.575000,0.089268
797.785069,0.350000,0.108972
797.818424,0.500000,0.217945
797.851778,0.475000,0.216145
797.885132,0.050000,0.152069
797.918486,0.400000,0.035355
797.951839,0.100000,0.061237
797.985192,0.175000,0.041458
798.018545,0.675000,0.224653
798.051898,0.725000,0.337963
798.085250,0.300000,0.093541
798.118602,0.850000,0.270416
798.151954,0.425000,0.397453
798.185305,0.725000,0.216145
798.218656,1.025000,0.265460
798.252007,1.350000,0.394493
798.285357,0.975000,0.270127
798.318708,0.400000,0.111803
798.352057,0.500000,0.183712
798.385407,0.775000,0.210283
798.418756,0.750000,0.321131
798.452106,0.575000,0.073951
798.485454,0.225000,0.119242
798.518803,0.900000,0.196850
798.552151,1.050000,0.553963
798.585499,0.700000,0.293684
798.618847,0.350000,0.251247
798.652194,0.350000,0.108972
798.685541,0.475000,0.151554
798.718888,0.350000,0.075000
798.752234,0.575000,0.201168
798.785580,0.900000,0.117260
798.818926,0.600000,0.244949
798.852272,0.300000,0.176777
798.885617,0.225000,0.096014
798.918962,0.275000,0.054486
798.952307,1.100000,0.176777
798.985651,0.900000,0.350000
799.018996,1.475000,0.458769
799.052339,3.525000,0.509135
799.085683,18.375000,1.525359
799.119026,55.075000,2.025887
799.152369,105.450000,3.791850
799.185712,149.750000,2.641141
799.219054,101.100000,2.044199
799.252397,33.166667,1.798031
799.285738,9.150000,0.552834
799.319080,2.175000,0.564994
799.352421,1.200000,0.564579
799.385762,0.850000,0.283945
799.419103,0.525000,0.064952
799.452443,0.250000,0.103078
799.485783,0.225000,0.096014
799.519123,0.175000,0.041458
799.552463,0.700000,0.302076
799.585802,0.475000,0.155624
799.619141,0.650000,0.364863
799.652480,0.025000,0.054486
799.685818,0.175000,0.155624
799.719156,0.875000,0.279229
799.752494,0.750000,0.147902
799.785831,0.975000,0.021651
799.819169,0.850000,0.103078
799.852506,0.425000,0.021651
799.885842,0.200000,0.136931
799.919179,0.300000,0.226385
799.952515,0.525000,0.151554
799.985850,0.550000,0.305164
800.019186,0.750000,0.213600
800.052521,0.475000,0.270127
800.085856,1.175000,0.357727
800.119191,1.450000,0.225000
800.152525,1.300000,0.333542
800.185859,1.100000,0.418330
800.219193,0.800000,0.176777
800.252526,0.600000,0.117260
800.285859,0.425000,0.081968
800.319192,0.325000,0.041458
800.352525,0.350000,0.043301
800.385857,0.525000,0.147373
800.419189,0.900000,0.154110
800.452521,0.625000,0.230149
800.485852,0.900000,0.280624
800.519183,0.175000,0.178098
800.552514,0.525000,0.279229
800.585844,-0.100000,0.266927
800.619175,1.175000,0.551560
800.652505,0.525000,0.184983
800.685834,0.825000,0.258300
800.719164,0.950000,0.230489
800.752493,0.700000,0.079057
800.785821,0.625000,0.143069
800.819150,0.400000,0.079057
800.852478,1.075000,0.537791
800.885806,0.850000,0.354436
800.919134,1.300000,0.162019
800.952461,3.750000,0.303109
800.985788,21.025000,1.787937
801.019115,92.975000,0.858323
801.052441,195.366667,0.936972
801.085767,322.375000,6.551658
801.119093,322.925000,4.072066
801.152419,120.233333,3.978117
801.185744,26.766667,1.468134
801.219069,6.575000,0.937000
801.252394,2.825000,0.274716
801.285718,0.600000,0.154110
801.319042,0.375000,0.163459
801.352366,0.400000,0.145774
801.385690,0.875000,0.230149
801.419013,0.025000,0.096014
801.452336,0.150000,0.201556
801.485658,0.450000,0.134629
801.518981,1.225000,0.320887
801.552303,0.625000,0.167239
801.585625,0.475000,0.272431
801.618946,0.300000,0.127475
801.652267,-0.125000,0.089268
801.685588,0.350000,0.055902
801.718909,0.350000,0.043301
801.752229,0.650000,0.090139
801.785549,0.775000,0.230149
801.818869,0.275000,0.073951
801.852188,0.150000,0.201556
801.885507,0.775000,0.021651
801.918826,0.650000,0.125000
801.952145,0.550000,0.114564
801.985463,0.500000,0.106066
802.018781,1.000000,0.523211
802.052099,0.650000,0.167705
802.085416,0.475000,0.054486
802.118733,0.500000,0.165831
802.152050,0.500000,0.154110
802.185366,0.250000,0.055902
802.218683,0.850000,0.125000
802.251999,0.675000,0.138632
802.285314,0.175000,0.089268
802.318630,0.425000,0.096014
802.351945,0.850000,0.334477
802.385259,0.700000,0.169558
802.418574,0.450000,0.082916
802.451888,0.625000,0.188331
802.485202,0.875000,0.308980
802.518515,0.650000,0.114564
802.551829,0.900000,0.215058
802.585142,0.900000,0.093541
802.618454,0.775000,0.102317
802.651767,0.350000,0.160078
802.685079,-0.100000,0.165831
802.718391,0.900000,0.220794
802.751702,0.775000,0.178098
802.785013,0.975000,0.424816
802.818324,2.550000,0.716327
802.851635,2.625000,0.658953
802.884945,9.325000,1.240149
802.918255,49.025000,2.190141
802.951565,164.050000,1.678727
802.984874,317.575000,4.874599
803.018184,438.075000,6.446935
803.051492,301.975000,5.868813
803.084801,80.325000,4.170338
803.118109,14.466667,0.864099
803.151417,3.400000,0.702673
803.184725,1.500000,0.242384
803.218032,0.725000,0.119242
803.251339,0.700000,0.325960
803.284646,0.575000,0.143069
803.317953,0.600000,0.353553
803.351259,0.225000,0.238157
803.384565,0.700000,0.093541
803.417870,0.750000,0.075000
803.451176,0.500000,0.100000
803.484481,0.675000,0.124373
803.517786,0.850000,0.160078
803.551090,0.775000,0.134048
803.584394,0.425000,0.113880
803.617698,0.775000,0.412879
803.651002,1.050000,0.114564
803.684305,1.000000,0.348210
803.717608,1.000000,0.348210
803.750910,1.625000,0.571593
803.784213,1.775000,0.466871
803.817515,1.425000,0.224653
803.850817,0.850000,0.114564
803.884118,1.475000,0.255869
803.917419,2.225000,0.583497
803.950720,2.200000,0.527968
803.984021,1.250000,0.467039
804.017321,1.950000,0.388104
804.050621,1.000000,0.306186
804.083921,1.225000,0.288043
804.117220,1.475000,0.403694
804.150519,1.050000,0.288314
804.183818,1.675000,0.300780
804.217117,0.700000,0.196850
804.250415,0.700000,0.176777
804.283713,1.250000,0.356195
804.317011,0.333333,0.040825
804.350308,0.775000,0.167239
804.383605,0.975000,0.298695
804.416902,1.375000,0.399022
804.450198,0.775000,0.221853
804.483494,0.875000,0.281458
804.516790,1.150000,0.251247
804.550086,1.000000,0.070711
804.583381,0.700000,0.127475
804.616676,1.000000,0.190394
804.649971,1.275000,0.108253
804.683265,1.100000,0.061237
804.716559,0.725000,0.446339
804.749853,1.675000,0.232849
804.783146,1.625000,0.267804
804.816440,10.425000,0.913356
804.849732,57.900000,2.001562
804.883025,237.800000,5.719156
804.916317,464.675000,6.007326
804.949609,550.075000,10.361852
804.982901,372.850000,4.219671
805.016192,97.500000,2.896118
805.049484,18.425000,0.374792
805.082774,1.825000,0.391112
805.116065,1.275000,0.163459
805.149355,1.275000,0.253414
805.182645,0.750000,0.265754
805.215935,0.600000,0.079057
805.249224,0.825000,0.174553
805.282513,0.575000,0.174553
805.315802,0.675000,0.096014
805.349090,1.125000,0.265460
805.382378,1.075000,0.255869
805.415666,0.775000,0.064952
805.448954,1.075000,0.124373
805.482241,1.000000,0.271570
805.515528,0.950000,0.175000
805.548815,1.200000,0.247487
805.582101,0.875000,0.243349
805.615387,0.975000,0.281458
805.648673,1.050000,0.207666
805.681958,1.150000,0.114564
805.715243,3.375000,0.636764
805.748528,2.325000,0.541266
805.781813,2.275000,0.527227
805.815097,2.750000,0.638847
805.848381,1.000000,0.340955
805.881665,0.950000,0.283945
805.914948,2.450000,0.482830
805.948231,0.850000,0.125000
805.981514,1.075000,0.143069
806.014796,1.325000,0.354216
806.048079,2.650000,0.430842
806.081360,2.250000,0.481534
806.114642,1.450000,0.125000
806.147923,1.150000,0.167705
806.181204,1.625000,0.290205
806.214485,0.525000,0.151554
806.247765,1.050000,0.375000
806.281046,1.500000,0.086603
806.314325,1.975000,0.427748
806.347605,0.925000,0.096014
806.380884,1.100000,0.471699
806.414163,1.475000,0.201168
806.447441,1.275000,0.267804
806.480720,1.175000,0.270127
806.513998,1.675000,0.541266
806.547275,1.775000,0.549289
806.580553,1.975000,0.224653
806.613830,1.900000,0.093541
806.647107,2.225000,0.288043
806.680383,3.725000,0.506674
806.713659,3.733333,0.250832
806.746935,9.000000,0.187083
806.780211,65.050000,0.500625
806.813486,308.650000,2.463864
806.846761,732.875000,15.722610
806.880036,1026.475000,4.287536
806.913310,868.275000,5.291193
806.946584,248.075000,7.189174
806.979858,40.550000,2.604923
807.013132,7.500000,1.258471
807.046405,1.850000,0.375000
807.079678,2.275000,0.449131
807.112951,1.375000,0.151554
807.146223,1.825000,0.437857
807.179495,1.325000,0.096014
807.212767,0.700000,0.327872
807.246038,0.950000,0.129904
807.279309,1.150000,0.167705
807.312580,1.150000,0.230489
807.345850,1.275000,0.336108
807.379121,0.625000,0.054486
807.412390,1.450000,0.453459
807.445660,1.625000,0.227418
807.478929,1.575000,0.514022
807.512198,1.350000,0.283945
807.545467,0.650000,0.143614
807.578735,0.950000,0.201556
807.612004,0.550000,0.286138
807.645271,1.225000,0.221853
807.678539,0.825000,0.096014
807.711806,1.500000,0.244949
807.745073,2.775000,0.633813
807.778340,1.900000,0.482183
807.811606,3.275000,0.541266
807.844872,2.900000,0.548862
807.878138,1.825000,0.320887
807.911403,1.950000,0.321131
807.944668,2.825000,0.368061
807.977933,1.550000,0.143614
808.011197,2.250000,0.235850
808.044462,2.300000,0.711512
808.077725,0.925000,0.188331
808.110989,2.025000,0.170935
808.144252,1.875000,0.302851
808.177515,2.375000,0.477461
808.210778,1.450000,0.160078
808.244040,1.675000,0.096014
808.277302,1.300000,0.093541
808.310564,2.125000,0.232849
808.343826,2.600000,0.220794
808.377087,2.425000,0.502960
808.410348,2.650000,0.270416
808.443608,3.500000,0.413824
808.476869,2.850000,0.396074
808.510129,2.925000,0.384667
808.543388,3.300000,0.422788
808.576648,3.600000,0.280624
808.609907,3.375000,0.147373
808.643165,5.600000,0.596867
808.676424,8.325000,0.757772
808.709682,35.425000,1.488865
808.742940,255.425000,2.820544
808.776197,899.100000,17.453510
808.809455,1468.525000,6.229905
808.842712,1475.775000,16.636645
808.875968,807.950000,6.290916
808.909225,142.125000,3.588066
808.942481,25.325000,1.577330
808.975736,4.550000,0.632949
809.008992,2.750000,0.532095
809.042247,2.300000,0.262202
809.075502,1.625000,0.316968
809.108756,1.900000,0.578792
809.142011,2.475000,0.343466
809.175265,2.225000,0.267804
809.208518,2.325000,0.230149
809.241772,1.700000,0.162019
809.275025,1.725000,0.230149
809.308277,1.875000,0.285865
809.341530,2.625000,0.468208
809.374782,2.525000,0.415895
809.408034,2.800000,0.169558
809.441285,2.600000,0.503736
809.474536,3.100000,0.562361
809.507787,2.200000,0.369121
809.541038,2.800000,0.620484
809.574288,2.550000,0.340037
809.607538,2.250000,0.334477
809.640788,2.350000,0.125000
809.674037,2.800000,0.280624
809.707286,2.925000,0.314990
809.740535,5.000000,0.428661
809.773783,5.400000,0.257391
809.807032,4.700000,0.553399
809.840279,4.100000,0.206155
809.873527,4.600000,0.822344
809.906774,4.225000,0.302851
809.940021,3.275000,0.245904
809.973268,4.150000,0.495606
810.006514,3.500000,0.770552
810.039760,3.925000,0.408312
810.073006,4.050000,0.347311
810.106251,4.325000,0.537791
810.139497,4.025000,0.129301
810.172741,4.350000,0.286138
810.205986,4.200000,0.169558
810.239230,3.825000,0.283670
810.272474,5.500000,0.329773
810.305718,6.200000,0.340955
810.338961,6.500000,0.873212
810.372204,6.450000,0.195256
810.405447,6.150000,0.294746
810.438689,8.100000,0.247487
810.471931,7.800000,0.247487
810.505173,8.975000,0.575950
810.538414,11.200000,0.348210
810.571656,13.775000,0.501716
810.604897,15.666667,0.142887
810.638137,26.725000,0.575950
810.671377,92.800000,3.127499
810.704617,572.875000,3.820238
810.737857,2012.825000,18.045061
810.771096,2716.350000,9.683394
810.804335,2221.425000,9.301504
810.837574,1208.325000,17.048217
810.870813,180.825000,5.010286
810.904051,32.266667,1.878940
810.937288,6.975000,0.240767
810.970526,2.400000,0.127475
811.003763,0.800000,0.434454
811.037000,0.700000,0.306186
811.070237,1.025000,0.235518
811.103473,1.150000,0.436606
811.136709,-0.050000,0.129904
811.169945,0.750000,0.201556
811.203180,1.650000,0.461655
811.236415,1.025000,0.129301
811.269650,0.725000,0.314990
811.302884,1.025000,0.613774
811.336119,1.400000,0.450000
811.369352,1.150000,0.552834
811.402586,2.100000,0.564579
811.435819,2.150000,0.656220
811.469052,7.050000,1.257229
811.502285,2.300000,0.677311
811.535517,0.825000,0.480072
811.568749,2.900000,0.908983
811.601981,2.975000,0.682253
811.635212,2.350000,0.477624
811.668443,0.933333,0.142887
811.701674,1.550000,0.336341
811.734905,3.875000,0.640678
811.768135,2.633333,0.235407
811.801365,3.475000,0.756121
811.834594,3.150000,0.649519
811.867824,1.400000,0.375832
811.901053,0.600000,0.231840
811.934281,0.150000,0.143614
811.967510,0.675000,0.210283
812.000738,1.300000,0.183712
812.033965,1.575000,0.434993
812.067193,1.375000,0.379761
812.100420,1.800000,0.310242
812.133647,1.975000,0.643598
812.166873,1.525000,0.310996
812.200099,0.975000,0.253414
812.233325,0.950000,0.309233
812.266551,1.075000,0.143069
812.299776,0.950000,0.261008
812.333001,1.550000,0.143614
812.366226,1.625000,0.320887
812.399450,1.425000,0.433554
812.432674,0.675000,0.102317
812.465898,1.100000,0.282843
812.499121,2.100000,0.434454
812.532345,2.275000,0.429207
812.565567,3.375000,0.442118
812.598790,4.600000,0.721976
812.632012,16.900000,0.568990
812.665234,128.200000,1.203640
812.698456,621.875000,8.519270
812.731677,1232.750000,19.866350
812.764898,1155.650000,11.995129
812.798119,614.100000,5.835666
812.831339,92.550000,0.829533
812.864559,18.200000,0.765670
812.897779,4.475000,0.216145
812.930998,1.900000,0.860959
812.964217,0.725000,0.306951
812.997436,0.600000,0.154110
813.030655,0.350000,0.129904
813.063873,0.775000,0.406779
813.097091,0.625000,0.143069
813.130308,-0.300000,0.093541
813.163526,0.200000,0.183712
813.196743,0.425000,0.178098
813.229959,0.875000,0.300780
813.263176,0.250000,0.129904
813.296392,0.075000,0.170935
813.329607,0.300000,0.242384
813.362823,0.525000,0.147373
813.396038,0.750000,0.394493
813.429253,0.175000,0.134048
813.462467,0.275000,0.089268
813.495682,0.875000,0.433554
813.528895,1.175000,0.495448
813.562109,1.075000,0.119242
813.595322,0.475000,0.134048
813.628535,0.850000,0.103078
813.661748,0.500000,0.289396
813.694960,0.450000,0.114564
813.728172,0.000000,0.061237
813.761384,0.100000,0.154110
813.794596,0.375000,0.332368
813.827807,-0.350000,0.125000
813.861017,0.275000,0.330483
813.894228,0.525000,0.119242
813.927438,0.475000,0.178098
813.960648,0.675000,0.439282
813.993858,0.750000,0.204634
814.027067,0.200000,0.079057
814.060276,0.450000,0.195256
814.093485,0.250000,0.235850
814.126693,0.300000,0.203101
814.159901,0.100000,0.337268
814.193109,-0.075000,0.210283
814.226316,0.425000,0.041458
814.259523,0.675000,0.178098
814.292730,0.650000,0.175000
814.325936,0.875000,0.224653
814.359143,0.650000,0.256174
814.392348,0.425000,0.113880
814.425554,0.350000,0.178536
814.458759,0.450000,0.160078
814.491964,0.425000,0.167239
814.525169,1.175000,0.394295
814.558373,0.300000,0.136931
814.591577,0.100000,0.154110
814.624781,1.475000,0.603505
814.657984,0.900000,0.093541
