#{
#    "background_file": "Backgrounds\\\\bg_787.999nm_16bin_197st_244en_10.0s_110g_4x_1_seq.txt",
#    "ccd_image_settings": [
#        1,
#        16,
#        1,
#        1600,
#        197,
#        244
#    ],
#    "ccd_temperature": "-88",
#    "cdRatios": {
#        "mean": 0.9129482187726048,
#        "std": 0.0037998931183064496
#    },
#    "center_lambda": 788.0,
#    "comments": "",
#    "dark_region": 0.2702472283410105,
#    "date": "11/17/19 14:54:49PM",
#    "eff_field": 1.5,
#    "exposure": 10.0,
#    "fel_lambda": "15.0",
#    "fel_pol": "H",
#    "fel_pulses": 40,
#    "fel_pyro_cal": "0.017",
#    "fel_reprate": "1.07",
#    "fel_transmission": "1.0",
#    "fel_transmission_fits": {
#        "A": 1.0,
#        "C": 0.0,
#        "Mu": 0.0
#    },
#    "fieldInt": {
#        "mean": 9905.101068181819,
#        "std": 250.11039157806653
#    },
#    "fieldStrength": {
#        "mean": 45.660272727272734,
#        "std": 0.5791966147953356
#    },
#    "fpTime": {
#        "mean": 1.3014904997493895,
#        "std": 0.05872595082978006
#    },
#    "gain": 110,
#    "grating": 3,
#    "images_in_sequence": [
#        "hsg_SpotD_crystal16_a00_HAna205.txt",
#        "hsg_SpotD_crystal16_a00_HAna206.txt",
#        "hsg_SpotD_crystal16_a00_HAna207.txt",
#        "hsg_SpotD_crystal16_a00_HAna208.txt"
#    ],
#    "nir_lambda": "820.9918",
#    "nir_pola": "00",
#    "nir_polg": "0",
#    "nir_power": "100.0",
#    "pulseEnergies": {
#        "mean": 2.176159090909091,
#        "std": 0.06074181820172411
#    },
#    "pyroVoltage": {
#        "mean": 0.14023306189290694,
#        "std": 0.004330367249347618
#    },
#    "rotatorAngle": 45.0,
#    "sample_Temp": "58",
#    "sample_name": "L001218.C3",
#    "series": "SpotD_16_00",
#    "slits": "60",
#    "spec_step": "",
#    "window_trans": 0.92,
#    "y_max": 2,
#    "y_min": 1
#}
#
#
#
#
#
#
#
#
#
#
#
#
#
#
#
#
#
#
#
#
#
#
#
#
#
#
Wavelength,Signal,error
nm,arb. u.,arb.u.
Wavelength,SpotD_16_00,error
761.200217,-0.100000,0.061237
761.233859,-0.175000,0.021651
761.267500,0.175000,0.119242
761.301141,0.000000,0.154110
761.334781,0.100000,0.061237
761.368422,-0.175000,0.198037
761.402062,0.250000,0.182003
761.435702,-0.275000,0.041458
761.469342,-0.200000,0.165831
761.502981,0.325000,0.174553
761.536620,-0.200000,0.050000
761.570259,-0.350000,0.043301
761.603898,-0.150000,0.055902
761.637537,0.000000,0.093541
761.671175,-0.175000,0.167239
761.704813,0.300000,0.176777
761.738451,0.275000,0.155624
761.772088,0.225000,0.191621
761.805726,-0.175000,0.174553
761.839363,0.150000,0.129904
761.873000,-0.300000,0.061237
761.906636,0.325000,0.178098
761.940273,-0.025000,0.064952
761.973909,0.050000,0.103078
762.007545,0.200000,0.111803
762.041180,-0.250000,0.103078
762.074816,-0.050000,0.134629
762.108451,0.150000,0.129904
762.142086,0.175000,0.143069
762.175720,0.175000,0.102317
762.209355,0.125000,0.089268
762.242989,0.275000,0.064952
762.276623,0.075000,0.108253
762.310257,0.250000,0.279508
762.343890,-0.200000,0.106066
762.377524,0.075000,0.194856
762.411157,0.200000,0.200000
762.444789,0.050000,0.025000
762.478422,-0.025000,0.041458
762.512054,0.250000,0.075000
762.545686,0.200000,0.122474
762.579318,0.225000,0.081968
762.612950,0.025000,0.054486
762.646581,0.150000,0.275000
762.680212,0.175000,0.138632
762.713843,0.350000,0.043301
762.747474,0.075000,0.041458
762.781104,-0.175000,0.089268
762.814734,-0.325000,0.113880
762.848364,-0.025000,0.096014
762.881994,-0.100000,0.035355
762.915623,0.125000,0.096014
762.949252,0.250000,0.160078
762.982881,0.075000,0.073951
763.016510,0.025000,0.113880
763.050139,0.000000,0.162019
763.083767,0.225000,0.159589
763.117395,0.225000,0.198037
763.151023,0.225000,0.054486
763.184650,0.175000,0.113880
763.218277,-0.125000,0.073951
763.251904,0.175000,0.147373
763.285531,0.000000,0.127475
763.319158,0.150000,0.075000
763.352784,-0.100000,0.079057
763.386410,0.725000,0.362931
763.420036,0.125000,0.343466
763.453661,1.200000,0.302076
763.487287,0.175000,0.253414
763.520912,-0.550000,0.279508
763.554537,-0.125000,0.041458
763.588161,-0.125000,0.096014
763.621786,0.025000,0.073951
763.655410,-0.050000,0.055902
763.689034,-0.250000,0.082916
763.722657,0.075000,0.151554
763.756281,0.100000,0.061237
763.789904,0.050000,0.082916
763.823527,-0.100000,0.061237
763.857150,-0.125000,0.041458
763.890772,0.050000,0.279508
763.924394,0.450000,0.256174
763.958016,0.100000,0.035355
763.991638,0.250000,0.103078
764.025260,0.100000,0.079057
764.058881,-0.050000,0.043301
764.092502,-0.225000,0.260708
764.126123,0.125000,0.073951
764.159743,0.150000,0.114564
764.193363,0.125000,0.198037
764.226983,0.100000,0.061237
764.260603,0.425000,0.224653
764.294223,-0.200000,0.122474
764.327842,0.000000,0.035355
764.361461,0.300000,0.106066
764.395080,0.200000,0.183712
764.428699,-0.025000,0.041458
764.462317,0.025000,0.155624
764.495935,-0.125000,0.064952
764.529553,0.150000,0.182003
764.563170,0.075000,0.155624
764.596788,0.275000,0.134048
764.630405,0.100000,0.079057
764.664022,-0.175000,0.113880
764.697638,0.375000,0.163459
764.731255,0.100000,0.050000
764.764871,0.750000,0.508060
764.798487,-0.150000,0.103078
764.832103,-0.125000,0.054486
764.865718,0.800000,0.314245
764.899333,0.200000,0.122474
764.932948,0.100000,0.050000
764.966563,-0.275000,0.096014
765.000177,0.175000,0.260708
765.033792,0.075000,0.021651
765.067406,0.150000,0.114564
765.101019,0.000000,0.100000
765.134633,-0.375000,0.041458
765.168246,0.125000,0.081968
765.201859,0.350000,0.192029
765.235472,0.125000,0.064952
765.269084,0.225000,0.021651
765.302697,-0.200000,0.145774
765.336309,-0.075000,0.054486
765.369920,0.100000,0.035355
765.403532,-0.025000,0.081968
765.437143,-0.125000,0.064952
765.470754,0.250000,0.055902
765.504365,0.375000,0.332368
765.537976,0.000000,0.061237
765.571586,-0.275000,0.054486
765.605196,0.150000,0.275000
765.638806,-0.100000,0.111803
765.672416,0.225000,0.174553
765.706025,-0.050000,0.082916
765.739634,-0.050000,0.055902
765.773243,0.375000,0.184983
765.806851,0.200000,0.079057
765.840460,0.325000,0.113880
765.874068,-0.025000,0.054486
765.907676,-0.250000,0.075000
765.941284,-0.025000,0.054486
765.974891,0.000000,0.061237
766.008498,0.075000,0.108253
766.042105,0.450000,0.301040
766.075712,0.000000,0.206155
766.109318,-0.050000,0.225000
766.142924,0.075000,0.096014
766.176530,-0.300000,0.276134
766.210136,-0.275000,0.081968
766.243741,0.175000,0.096014
766.277347,0.075000,0.167239
766.310951,0.325000,0.219018
766.344556,0.775000,0.283670
766.378161,0.350000,0.075000
766.411765,-0.100000,0.176777
766.445369,0.275000,0.272431
766.478973,0.075000,0.178098
766.512576,0.025000,0.041458
766.546179,-0.150000,0.025000
766.579782,0.275000,0.313000
766.613385,0.125000,0.138632
766.646988,-0.050000,0.114564
766.680590,0.275000,0.238157
766.714192,0.100000,0.079057
766.747794,0.050000,0.075000
766.781395,0.175000,0.041458
766.814996,-0.400000,0.070711
766.848597,-0.050000,0.043301
766.882198,0.125000,0.124373
766.915799,0.225000,0.073951
766.949399,0.000000,0.127475
766.982999,0.050000,0.075000
767.016599,-0.150000,0.043301
767.050198,0.850000,0.510514
767.083798,0.175000,0.073951
767.117397,0.025000,0.170935
767.150996,-0.100000,0.061237
767.184594,-0.225000,0.108253
767.218193,0.025000,0.081968
767.251791,0.200000,0.093541
767.285389,-0.375000,0.041458
767.318986,0.050000,0.108972
767.352583,0.225000,0.096014
767.386181,-0.075000,0.073951
767.419777,0.250000,0.188746
767.453374,0.100000,0.136931
767.486970,-0.325000,0.124373
767.520567,0.150000,0.055902
767.554162,-0.050000,0.025000
767.587758,0.275000,0.129301
767.621353,0.125000,0.064952
767.654949,-0.050000,0.043301
767.688543,0.100000,0.093541
767.722138,0.025000,0.147373
767.755732,0.150000,0.055902
767.789327,-0.175000,0.054486
767.822921,-0.300000,0.106066
767.856514,-0.275000,0.108253
767.890108,-0.025000,0.054486
767.923701,-0.100000,0.145774
767.957294,0.175000,0.096014
767.990886,0.325000,0.184983
768.024479,-0.075000,0.073951
768.058071,0.275000,0.210283
768.091663,-0.225000,0.184983
768.125255,0.100000,0.093541
768.158846,0.325000,0.163459
768.192437,-0.200000,0.086603
768.226028,-0.225000,0.041458
768.259619,0.100000,0.070711
768.293209,0.150000,0.188746
768.326799,0.150000,0.143614
768.360389,0.150000,0.129904
768.393979,0.100000,0.079057
768.427568,0.000000,0.117260
768.461158,0.225000,0.379761
768.494747,-0.050000,0.090139
768.528335,-0.050000,0.143614
768.561924,0.125000,0.054486
768.595512,0.125000,0.235518
768.629100,-0.050000,0.075000
768.662688,-0.125000,0.064952
768.696275,-0.025000,0.041458
768.729862,-0.025000,0.096014
768.763449,0.100000,0.150000
768.797036,0.050000,0.251247
768.830623,0.275000,0.064952
768.864209,0.125000,0.054486
768.897795,0.150000,0.143614
768.931381,0.525000,0.328586
768.964966,0.050000,0.134629
768.998551,0.250000,0.108972
769.032136,0.000000,0.079057
769.065721,0.150000,0.090139
769.099305,-0.150000,0.025000
769.132890,0.250000,0.408503
769.166474,0.150000,0.075000
769.200057,0.250000,0.246221
769.233641,0.400000,0.406202
769.267224,0.325000,0.207289
769.300807,-0.350000,0.201556
769.334390,-0.150000,0.055902
769.367972,0.325000,0.227418
769.401555,-0.225000,0.021651
769.435137,-0.300000,0.093541
769.468718,-0.025000,0.089268
769.502300,0.050000,0.175000
769.535881,-0.125000,0.041458
769.569462,-0.375000,0.089268
769.603043,-0.100000,0.050000
769.636623,0.325000,0.174553
769.670204,0.050000,0.167705
769.703784,0.375000,0.194856
769.737364,0.275000,0.064952
769.770943,0.225000,0.230149
769.804522,0.000000,0.117260
769.838101,-0.100000,0.154110
769.871680,0.125000,0.181573
769.905259,0.025000,0.313000
769.938837,0.350000,0.219374
769.972415,0.150000,0.055902
770.005993,0.100000,0.106066
770.039570,0.225000,0.204252
770.073147,0.075000,0.096014
770.106724,-0.000000,0.093541
770.140301,0.300000,0.070711
770.173878,0.125000,0.054486
770.207454,-0.125000,0.073951
770.241030,0.225000,0.170935
770.274606,0.150000,0.075000
770.308181,0.250000,0.043301
770.341757,0.075000,0.134048
770.375332,-0.025000,0.041458
770.408906,0.325000,0.283670
770.442481,-0.175000,0.073951
770.476055,-0.200000,0.035355
770.509629,0.550000,0.235850
770.543203,-0.100000,0.093541
770.576776,0.150000,0.103078
770.610350,0.175000,0.102317
770.643923,-0.025000,0.129301
770.677495,0.175000,0.108253
770.711068,0.025000,0.113880
770.744640,-0.025000,0.041458
770.778212,0.025000,0.167239
770.811784,0.325000,0.343466
770.845356,0.000000,0.127475
770.878927,0.450000,0.103078
770.912498,-0.050000,0.075000
770.946069,0.025000,0.129301
770.979639,-0.075000,0.054486
771.013209,0.175000,0.113880
771.046779,-0.525000,0.054486
771.080349,-0.125000,0.021651
771.113919,0.350000,0.195256
771.147488,0.075000,0.108253
771.181057,0.200000,0.079057
771.214626,0.025000,0.113880
771.248194,0.400000,0.206155
771.281762,-0.125000,0.041458
771.315330,-0.150000,0.055902
771.348898,0.050000,0.082916
771.382465,-0.325000,0.073951
771.416033,-0.325000,0.021651
771.449600,0.375000,0.245904
771.483166,-0.100000,0.127475
771.516733,0.525000,0.167239
771.550299,-0.150000,0.043301
771.583865,0.200000,0.136931
771.617431,0.250000,0.364863
771.650996,0.200000,0.000000
771.684562,0.225000,0.224653
771.718127,0.250000,0.114564
771.751691,0.050000,0.043301
771.785256,-0.200000,0.169558
771.818820,0.025000,0.155624
771.852384,0.400000,0.262202
771.885948,0.375000,0.260708
771.919511,-0.050000,0.134629
771.953074,0.250000,0.160078
771.986637,0.125000,0.174553
772.020200,-0.125000,0.096014
772.053762,0.000000,0.035355
772.087325,0.100000,0.117260
772.120887,-0.300000,0.093541
772.154448,0.300000,0.117260
772.188010,0.225000,0.151554
772.221571,-0.225000,0.021651
772.255132,0.000000,0.117260
772.288692,0.300000,0.183712
772.322253,0.625000,0.198037
772.355813,0.875000,0.514022
772.389373,0.150000,0.426468
772.422933,0.200000,0.196850
772.456492,0.275000,0.073951
772.490051,0.075000,0.064952
772.523610,0.650000,0.340037
772.557169,-0.050000,0.055902
772.590727,0.000000,0.000000
772.624285,0.175000,0.073951
772.657843,0.200000,0.093541
772.691401,-0.325000,0.054486
772.724958,0.075000,0.134048
772.758515,0.250000,0.147902
772.792072,0.350000,0.188746
772.825629,-0.300000,0.050000
772.859185,0.075000,0.155624
772.892741,0.025000,0.238157
772.926297,0.050000,0.043301
772.959853,-0.050000,0.055902
772.993408,-0.625000,0.041458
773.026963,-0.175000,0.073951
773.060518,-0.025000,0.073951
773.094073,0.000000,0.176777
773.127627,0.200000,0.086603
773.161181,0.200000,0.127475
773.194735,0.150000,0.025000
773.228289,0.350000,0.296859
773.261842,0.425000,0.143069
773.295395,0.525000,0.265460
773.328948,0.900000,0.413824
773.362500,0.275000,0.178098
773.396053,0.050000,0.055902
773.429605,0.025000,0.041458
773.463157,0.125000,0.081968
773.496708,0.200000,0.070711
773.530260,-0.350000,0.075000
773.563811,-0.275000,0.124373
773.597361,-0.225000,0.021651
773.630912,-0.025000,0.089268
773.664462,0.325000,0.147373
773.698012,-0.100000,0.093541
773.731562,0.175000,0.124373
773.765111,0.125000,0.089268
773.798661,0.075000,0.054486
773.832210,0.025000,0.041458
773.865758,0.250000,0.055902
773.899307,-0.025000,0.064952
773.932855,-0.075000,0.143069
773.966403,-0.200000,0.035355
773.999951,0.075000,0.081968
774.033498,0.000000,0.035355
774.067046,0.050000,0.055902
774.100593,0.450000,0.277263
774.134139,0.300000,0.117260
774.167686,-0.100000,0.079057
774.201232,0.200000,0.117260
774.234778,0.125000,0.041458
774.268324,0.125000,0.054486
774.301869,-0.000000,0.079057
774.335414,-0.175000,0.143069
774.368959,0.050000,0.160078
774.402504,0.200000,0.154110
774.436048,-0.275000,0.204252
774.469592,0.075000,0.089268
774.503136,0.050000,0.055902
774.536680,0.075000,0.041458
774.570223,0.125000,0.073951
774.603766,0.150000,0.075000
774.637309,0.225000,0.073951
774.670852,-0.050000,0.025000
774.704394,0.150000,0.114564
774.737936,0.100000,0.158114
774.771478,-0.150000,0.082916
774.805020,0.000000,0.061237
774.838561,0.075000,0.155624
774.872102,0.375000,0.041458
774.905643,0.100000,0.000000
774.939183,0.175000,0.054486
774.972724,-0.025000,0.102317
775.006264,0.075000,0.096014
775.039804,0.700000,0.379144
775.073343,0.700000,0.348210
775.106882,0.575000,0.328586
775.140421,0.300000,0.226385
775.173960,0.025000,0.216145
775.207499,-0.175000,0.143069
775.241037,0.150000,0.134629
775.274575,-0.100000,0.035355
775.308113,0.200000,0.173205
775.341650,0.125000,0.054486
775.375187,-0.025000,0.064952
775.408724,-0.225000,0.021651
775.442261,-0.100000,0.117260
775.475798,-0.075000,0.073951
775.509334,0.150000,0.055902
775.542870,-0.100000,0.079057
775.576405,-0.075000,0.089268
775.609941,0.175000,0.089268
775.643476,0.150000,0.055902
775.677011,-0.375000,0.041458
775.710546,0.200000,0.111803
775.744080,0.275000,0.181573
775.777614,0.125000,0.041458
775.811148,-0.150000,0.055902
775.844682,-0.250000,0.055902
775.878215,-0.075000,0.089268
775.911748,-0.025000,0.021651
775.945281,0.125000,0.170935
775.978814,0.125000,0.253414
776.012346,-0.150000,0.043301
776.045878,0.000000,0.061237
776.079410,0.300000,0.086603
776.112941,0.225000,0.089268
776.146473,-0.225000,0.096014
776.180004,-0.025000,0.064952
776.213535,0.325000,0.194856
776.247065,0.150000,0.108972
776.280595,0.200000,0.141421
776.314125,0.075000,0.041458
776.347655,-0.225000,0.041458
776.381185,-0.200000,0.050000
776.414714,0.675000,0.296595
776.448243,-0.150000,0.090139
776.481772,-0.200000,0.111803
776.515300,0.225000,0.170935
776.548828,-0.200000,0.079057
776.582356,-0.350000,0.055902
776.615884,-0.100000,0.070711
776.649411,0.325000,0.227418
776.682938,0.025000,0.129301
776.716465,0.075000,0.073951
776.749992,0.175000,0.041458
776.783518,0.050000,0.055902
776.817044,0.600000,0.231840
776.850570,0.575000,0.260708
776.884096,0.950000,0.213600
776.917621,0.175000,0.041458
776.951146,0.600000,0.154110
776.984671,0.025000,0.232849
777.018196,0.425000,0.432110
777.051720,0.450000,0.225000
777.085244,0.300000,0.093541
777.118768,-0.325000,0.108253
777.152292,0.050000,0.043301
777.185815,0.025000,0.054486
777.219338,0.375000,0.272431
777.252861,0.425000,0.260708
777.286383,-0.075000,0.073951
777.319905,-0.075000,0.041458
777.353427,0.150000,0.043301
777.386949,0.125000,0.073951
777.420471,0.275000,0.096014
777.453992,0.275000,0.073951
777.487513,0.550000,0.317214
777.521033,-0.325000,0.134048
777.554554,-0.100000,0.231840
777.588074,0.025000,0.041458
777.621594,0.275000,0.151554
777.655114,0.200000,0.079057
777.688633,0.325000,0.204252
777.722152,-0.100000,0.035355
777.755671,0.325000,0.283670
777.789190,0.175000,0.151554
777.822708,-0.200000,0.061237
777.856226,0.175000,0.073951
777.889744,0.225000,0.113880
777.923261,0.025000,0.064952
777.956779,0.125000,0.138632
777.990296,0.200000,0.079057
778.023812,-0.100000,0.061237
778.057329,0.100000,0.061237
778.090845,0.325000,0.143069
778.124361,0.025000,0.096014
778.157877,0.050000,0.090139
778.191392,-0.125000,0.108253
778.224908,0.175000,0.213234
778.258423,0.275000,0.308980
778.291937,0.025000,0.054486
778.325452,0.075000,0.073951
778.358966,0.300000,0.269258
778.392480,-0.025000,0.041458
778.425993,-0.150000,0.075000
778.459507,0.100000,0.093541
778.493020,-0.100000,0.035355
778.526533,0.150000,0.147902
778.560045,-0.400000,0.050000
778.593558,0.150000,0.201556
778.627070,1.075000,0.462838
778.660582,1.150000,0.432290
778.694093,1.400000,0.382426
778.727605,1.025000,0.230149
778.761116,1.050000,0.561805
778.794626,0.150000,0.201556
778.828137,0.450000,0.201556
778.861647,-0.025000,0.064952
778.895157,-0.000000,0.079057
778.928667,0.200000,0.079057
778.962176,0.025000,0.041458
778.995686,0.050000,0.075000
779.029194,0.000000,0.035355
779.062703,-0.025000,0.073951
779.096212,0.075000,0.054486
779.129720,0.175000,0.021651
779.163228,-0.225000,0.124373
779.196735,-0.025000,0.073951
779.230243,-0.450000,0.114564
779.263750,0.050000,0.043301
779.297257,0.000000,0.111803
779.330763,-0.175000,0.096014
779.364269,0.100000,0.035355
779.397776,0.575000,0.469541
779.431281,0.025000,0.089268
779.464787,0.225000,0.081968
779.498292,0.025000,0.073951
779.531797,0.150000,0.075000
779.565302,0.250000,0.160078
779.598806,-0.150000,0.025000
779.632311,0.300000,0.150000
779.665814,0.225000,0.198037
779.699318,-0.025000,0.108253
779.732822,0.225000,0.096014
779.766325,0.075000,0.096014
779.799828,0.050000,0.075000
779.833330,-0.075000,0.041458
779.866833,-0.050000,0.103078
779.900335,0.175000,0.041458
779.933837,0.200000,0.093541
779.967338,-0.050000,0.043301
780.000840,-0.100000,0.106066
780.034341,-0.075000,0.054486
780.067841,0.175000,0.143069
780.101342,-0.050000,0.103078
780.134842,0.100000,0.000000
780.168342,-0.075000,0.143069
780.201842,0.200000,0.093541
780.235341,0.225000,0.021651
780.268841,0.325000,0.167239
780.302340,-0.050000,0.082916
780.335838,0.125000,0.054486
780.369337,-0.075000,0.108253
780.402835,-0.125000,0.096014
780.436333,0.325000,0.167239
780.469830,1.450000,0.460299
780.503328,0.900000,0.176777
780.536825,2.475000,0.483962
780.570322,1.125000,0.397453
780.603818,0.700000,0.395285
780.637315,-0.025000,0.021651
780.670811,-0.025000,0.021651
780.704306,-0.050000,0.025000
780.737802,0.800000,0.404660
780.771297,0.100000,0.154110
780.804792,0.450000,0.340037
780.838287,0.125000,0.207289
780.871781,0.025000,0.138632
780.905276,0.075000,0.073951
780.938770,0.300000,0.527968
780.972263,-0.075000,0.041458
781.005757,0.125000,0.064952
781.039250,-0.075000,0.089268
781.072743,0.375000,0.096014
781.106235,0.125000,0.089268
781.139728,0.050000,0.195256
781.173220,0.025000,0.021651
781.206712,0.375000,0.163459
781.240203,0.650000,0.340037
781.273694,0.250000,0.043301
781.307185,0.175000,0.102317
781.340676,0.175000,0.124373
781.374167,0.575000,0.585635
781.407657,0.475000,0.191621
781.441147,0.050000,0.025000
781.474636,-0.075000,0.064952
781.508126,-0.150000,0.108972
781.541615,0.025000,0.113880
781.575104,0.075000,0.064952
781.608593,0.050000,0.090139
781.642081,-0.200000,0.106066
781.675569,0.075000,0.021651
781.709057,0.100000,0.093541
781.742544,0.125000,0.021651
781.776032,0.200000,0.070711
781.809519,0.025000,0.021651
781.843006,0.075000,0.064952
781.876492,0.200000,0.173205
781.909978,0.100000,0.061237
781.943464,0.100000,0.035355
781.976950,0.175000,0.134048
782.010435,-0.050000,0.043301
782.043921,-0.150000,0.114564
782.077406,-0.100000,0.079057
782.110890,0.250000,0.129904
782.144375,0.025000,0.167239
782.177859,0.100000,0.111803
782.211343,0.300000,0.262202
782.244826,1.250000,0.265754
782.278309,2.050000,0.461655
782.311792,2.550000,0.241091
782.345275,2.200000,0.291548
782.378758,2.500000,0.470372
782.412240,1.475000,0.480072
782.445722,0.425000,0.184983
782.479204,0.125000,0.041458
782.512685,-0.400000,0.050000
782.546166,0.150000,0.134629
782.579647,0.250000,0.192029
782.613128,0.100000,0.122474
782.646608,-0.050000,0.055902
782.680088,0.100000,0.035355
782.713568,0.450000,0.422049
782.747048,0.100000,0.050000
782.780527,0.025000,0.096014
782.814006,-0.150000,0.025000
782.847485,-0.250000,0.025000
782.880963,-0.275000,0.041458
782.914442,-0.125000,0.081968
782.947920,-0.225000,0.163459
782.981397,0.125000,0.054486
783.014875,0.275000,0.134048
783.048352,0.150000,0.219374
783.081829,0.300000,0.070711
783.115306,0.150000,0.134629
783.148782,-0.100000,0.061237
783.182258,0.200000,0.165831
783.215734,0.425000,0.159589
783.249209,-0.275000,0.064952
783.282685,0.025000,0.054486
783.316160,0.475000,0.194856
783.349635,0.450000,0.207666
783.383109,-0.000000,0.203101
783.416583,0.225000,0.483962
783.450057,0.050000,0.147902
783.483531,0.000000,0.217945
783.517004,0.175000,0.143069
783.550477,-0.000000,0.106066
783.583950,0.250000,0.055902
783.617423,0.500000,0.187083
783.650895,0.425000,0.194856
783.684367,0.050000,0.125000
783.717839,-0.500000,0.061237
783.751311,-0.250000,0.025000
783.784782,0.075000,0.041458
783.818253,-0.150000,0.114564
783.851724,0.250000,0.114564
783.885194,0.400000,0.262202
783.918665,-0.050000,0.075000
783.952134,0.150000,0.075000
783.985604,0.300000,0.079057
784.019074,0.000000,0.061237
784.052543,0.075000,0.064952
784.086012,0.650000,0.270416
784.119480,1.625000,0.807291
784.152948,3.475000,0.495448
784.186416,3.775000,0.468208
784.219884,3.000000,0.374166
784.253352,1.750000,0.356195
784.286819,0.350000,0.160078
784.320286,-0.050000,0.108972
784.353753,0.125000,0.113880
784.387219,0.075000,0.096014
784.420685,0.225000,0.230149
784.454151,0.375000,0.096014
784.487617,-0.325000,0.073951
784.521082,0.075000,0.129301
784.554547,0.150000,0.043301
784.588012,0.100000,0.079057
784.621477,0.175000,0.081968
784.654941,0.175000,0.096014
784.688405,0.175000,0.081968
784.721869,0.000000,0.093541
784.755332,-0.100000,0.070711
784.788795,0.100000,0.070711
784.822258,0.300000,0.136931
784.855721,0.225000,0.041458
784.889183,-0.025000,0.073951
784.922646,-0.200000,0.079057
784.956107,0.175000,0.041458
784.989569,0.250000,0.201556
785.023030,-0.150000,0.055902
785.056491,-0.050000,0.075000
785.089952,-0.050000,0.055902
785.123413,-0.000000,0.106066
785.156873,0.025000,0.379761
785.190333,-0.050000,0.055902
785.223792,0.975000,0.248433
785.257252,-0.050000,0.103078
785.290711,-0.050000,0.025000
785.324170,0.050000,0.090139
785.357629,-0.050000,0.114564
785.391087,0.100000,0.079057
785.424545,0.000000,0.061237
785.458003,0.050000,0.090139
785.491460,0.100000,0.111803
785.524918,0.175000,0.129301
785.558375,0.075000,0.041458
785.591831,-0.075000,0.089268
785.625288,0.025000,0.129301
785.658744,0.275000,0.119242
785.692200,-0.075000,0.129301
785.725655,0.225000,0.108253
785.759111,0.225000,0.108253
785.792566,0.050000,0.160078
785.826021,0.000000,0.061237
785.859475,-0.275000,0.073951
785.892930,0.100000,0.035355
785.926384,1.300000,0.297909
785.959837,1.750000,0.349106
785.993291,4.250000,0.219374
786.026744,5.800000,0.486056
786.060197,5.800000,0.715891
786.093649,3.050000,0.369966
786.127102,1.150000,0.449305
786.160554,0.075000,0.124373
786.194006,0.200000,0.093541
786.227457,0.275000,0.134048
786.260909,0.100000,0.070711
786.294360,0.050000,0.075000
786.327810,-0.150000,0.055902
786.361261,0.050000,0.055902
786.394711,-0.100000,0.093541
786.428161,-0.150000,0.055902
786.461611,0.150000,0.025000
786.495060,0.225000,0.350669
786.528509,-0.100000,0.035355
786.561958,0.200000,0.136931
786.595407,0.425000,0.339807
786.628855,0.175000,0.081968
786.662303,-0.150000,0.075000
786.695751,-0.025000,0.073951
786.729198,-0.175000,0.021651
786.762645,0.025000,0.041458
786.796092,0.225000,0.255869
786.829539,0.125000,0.113880
786.862985,-0.100000,0.093541
786.896431,0.550000,0.336341
786.929877,0.275000,0.129301
786.963323,-0.100000,0.050000
786.996768,0.175000,0.073951
787.030213,0.225000,0.167239
787.063658,-0.275000,0.089268
787.097102,0.175000,0.163459
787.130547,-0.325000,0.089268
787.163991,-0.100000,0.035355
787.197434,-0.600000,0.093541
787.230878,0.125000,0.054486
787.264321,0.225000,0.089268
787.297764,-0.125000,0.064952
787.331206,0.175000,0.155624
787.364648,0.125000,0.102317
787.398090,-0.050000,0.075000
787.431532,0.200000,0.100000
787.464974,0.175000,0.155624
787.498415,-0.250000,0.082916
787.531856,-0.050000,0.043301
787.565296,-0.375000,0.021651
787.598737,0.100000,0.122474
787.632177,0.350000,0.090139
787.665617,0.100000,0.291548
787.699056,0.550000,0.305164
787.732496,-0.350000,0.055902
787.765935,0.550000,0.225000
787.799373,1.500000,0.229129
787.832812,4.200000,0.596867
787.866250,6.100000,0.280624
787.899688,6.775000,0.938999
787.933126,3.550000,0.825000
787.966563,2.350000,0.798827
788.000000,0.700000,0.154110
788.033437,-0.100000,0.061237
788.066873,0.075000,0.096014
788.100310,0.500000,0.169558
788.133746,0.100000,0.050000
788.167181,-0.000000,0.093541
788.200617,0.300000,0.206155
788.234052,0.150000,0.043301
788.267487,0.075000,0.041458
788.300921,0.600000,0.262202
788.334356,0.350000,0.219374
788.367790,0.150000,0.025000
788.401224,-0.075000,0.054486
788.434657,-0.075000,0.054486
788.468090,-0.025000,0.167239
788.501523,0.575000,0.357727
788.534956,0.500000,0.407738
788.568389,0.100000,0.079057
788.601821,0.025000,0.054486
788.635253,-0.050000,0.160078
788.668684,0.050000,0.075000
788.702116,0.025000,0.081968
788.735547,-0.025000,0.089268
788.768977,0.025000,0.119242
788.802408,0.600000,0.291548
788.835838,0.175000,0.167239
788.869268,0.275000,0.151554
788.902698,0.325000,0.198037
788.936127,-0.025000,0.096014
788.969556,0.100000,0.111803
789.002985,0.575000,0.216145
789.036414,0.150000,0.143614
789.069842,0.175000,0.151554
789.103270,0.300000,0.136931
789.136698,0.100000,0.035355
789.170125,0.125000,0.054486
789.203552,-0.025000,0.041458
789.236979,0.425000,0.041458
789.270406,0.025000,0.119242
789.303832,0.050000,0.043301
789.337258,0.300000,0.079057
789.370684,0.250000,0.343693
789.404110,0.025000,0.129301
789.437535,0.500000,0.117260
789.470960,0.200000,0.070711
789.504385,0.000000,0.111803
789.537809,0.150000,0.090139
789.571233,0.175000,0.124373
789.604657,0.600000,0.209165
789.638081,1.500000,0.555653
789.671504,3.400000,0.503736
789.704927,7.550000,0.534439
789.738350,9.575000,0.389511
789.771772,11.125000,0.783721
789.805195,3.000000,0.518411
789.838617,1.366667,0.088976
789.872038,1.300000,0.314245
789.905460,-0.575000,0.054486
789.938881,0.200000,0.154110
789.972302,0.025000,0.021651
790.005722,0.100000,0.070711
790.039143,-0.025000,0.041458
790.072563,0.450000,0.391312
790.105982,0.325000,0.255869
790.139402,0.200000,0.035355
790.172821,-0.175000,0.129301
790.206240,0.050000,0.043301
790.239658,0.175000,0.073951
790.273077,0.300000,0.145774
790.306495,-0.050000,0.075000
790.339913,0.475000,0.138632
790.373330,-0.050000,0.125000
790.406747,0.150000,0.134629
790.440164,0.000000,0.061237
790.473581,0.100000,0.106066
790.506997,-0.150000,0.075000
790.540414,0.075000,0.089268
790.573829,0.150000,0.103078
790.607245,0.300000,0.203101
790.640660,-0.100000,0.136931
790.674075,0.250000,0.103078
790.707490,0.375000,0.096014
790.740904,0.225000,0.108253
790.774319,0.100000,0.070711
790.807733,0.275000,0.151554
790.841146,0.450000,0.368273
790.874560,0.050000,0.103078
790.907973,0.125000,0.073951
790.941385,0.350000,0.167705
790.974798,-0.050000,0.055902
791.008210,0.150000,0.043301
791.041622,0.175000,0.201168
791.075034,0.150000,0.055902
791.108445,-0.150000,0.103078
791.141856,0.200000,0.050000
791.175267,0.050000,0.075000
791.208678,0.225000,0.054486
791.242088,0.550000,0.251247
791.275498,0.175000,0.102317
791.308908,-0.100000,0.070711
791.342317,0.150000,0.108972
791.375726,0.150000,0.090139
791.409135,0.125000,0.102317
791.442544,-0.200000,0.079057
791.475952,0.850000,0.354436
791.509360,2.400000,0.462331
791.542768,5.200000,0.304138
791.576176,12.175000,0.854675
791.609583,20.225000,1.136538
791.642990,18.066667,1.829048
791.676396,10.025000,0.466871
791.709803,3.500000,1.038629
791.743209,0.800000,0.187083
791.776615,0.525000,0.108253
791.810020,-0.050000,0.043301
791.843425,0.150000,0.225000
791.876830,-0.450000,0.075000
791.910235,0.225000,0.054486
791.943640,0.175000,0.081968
791.977044,-0.250000,0.043301
792.010448,0.050000,0.090139
792.043851,0.125000,0.073951
792.077254,0.150000,0.246221
792.110658,0.275000,0.143069
792.144060,0.175000,0.129301
792.177463,-0.075000,0.054486
792.210865,-0.050000,0.082916
792.244267,0.175000,0.064952
792.277668,-0.050000,0.055902
792.311070,0.125000,0.054486
792.344471,0.325000,0.054486
792.377872,0.050000,0.055902
792.411272,0.225000,0.167239
792.444672,0.200000,0.061237
792.478072,0.125000,0.041458
792.511472,0.125000,0.207289
792.544871,0.100000,0.061237
792.578271,0.025000,0.227418
792.611669,0.125000,0.147373
792.645068,0.150000,0.108972
792.678466,-0.000000,0.127475
792.711864,-0.075000,0.064952
792.745262,-0.100000,0.106066
792.778659,0.325000,0.174553
792.812056,0.100000,0.117260
792.845453,0.225000,0.064952
792.878850,0.050000,0.082916
792.912246,0.175000,0.081968
792.945642,0.200000,0.111803
792.979038,0.275000,0.227418
793.012433,0.050000,0.075000
793.045829,-0.050000,0.082916
793.079223,-0.225000,0.054486
793.112618,0.050000,0.195256
793.146012,0.300000,0.111803
793.179406,-0.275000,0.041458
793.212800,-0.075000,0.064952
793.246194,0.575000,0.440703
793.279587,0.475000,0.119242
793.312980,0.250000,0.147902
793.346373,0.325000,0.188331
793.379765,3.125000,0.854675
793.413157,8.525000,0.856136
793.446549,13.600000,0.810093
793.479940,19.733333,0.596168
793.513332,22.400000,1.262933
793.546723,15.500000,1.004988
793.580113,3.400000,0.266927
793.613504,0.600000,0.215058
793.646894,0.150000,0.143614
793.680284,0.175000,0.272431
793.713673,-0.075000,0.021651
793.747062,0.125000,0.081968
793.780451,0.125000,0.096014
793.813840,0.375000,0.235518
793.847228,0.200000,0.136931
793.880617,0.025000,0.054486
793.914004,0.025000,0.089268
793.947392,-0.175000,0.113880
793.980779,-0.275000,0.021651
794.014166,-0.250000,0.025000
794.047553,0.475000,0.198037
794.080940,0.275000,0.108253
794.114326,0.375000,0.124373
794.147712,-0.100000,0.061237
794.181097,-0.125000,0.041458
794.214483,0.200000,0.035355
794.247868,0.725000,0.163459
794.281252,0.200000,0.070711
794.314637,-0.100000,0.122474
794.348021,-0.100000,0.061237
794.381405,-0.075000,0.096014
794.414788,0.325000,0.194856
794.448172,0.725000,0.314990
794.481555,0.100000,0.117260
794.514938,-0.025000,0.081968
794.548320,-0.050000,0.055902
794.581702,0.050000,0.082916
794.615084,0.225000,0.108253
794.648466,0.175000,0.073951
794.681847,0.350000,0.043301
794.715228,0.225000,0.113880
794.748609,-0.050000,0.114564
794.781990,-0.225000,0.330483
794.815370,0.950000,0.268095
794.848750,0.575000,0.374792
794.882129,-0.100000,0.242384
794.915509,0.125000,0.073951
794.948888,-0.225000,0.096014
794.982267,0.400000,0.176777
795.015645,-0.050000,0.090139
795.049023,0.325000,0.235518
795.082401,0.000000,0.079057
795.115779,0.150000,0.114564
795.149156,0.000000,0.035355
795.182534,0.425000,0.134048
795.215910,0.550000,0.188746
795.249287,2.000000,0.325960
795.282663,6.733333,0.642586
795.316039,18.550000,0.296859
795.349415,28.525000,0.483962
795.382790,43.050000,0.739510
795.416165,34.300000,1.276225
795.449540,14.225000,1.922360
795.482915,4.325000,0.569402
795.516289,1.300000,0.289396
795.549663,0.550000,0.178536
795.583037,-0.125000,0.041458
795.616410,0.050000,0.075000
795.649783,-0.300000,0.035355
795.683156,0.050000,0.075000
795.716529,0.150000,0.043301
795.749901,-0.175000,0.054486
795.783273,-0.050000,0.090139
795.816645,-0.175000,0.108253
795.850016,0.750000,0.368273
795.883387,0.200000,0.127475
795.916758,0.225000,0.108253
795.950129,0.100000,0.237171
795.983499,0.100000,0.079057
796.016869,0.200000,0.226385
796.050239,-0.300000,0.127475
796.083608,0.150000,0.114564
796.116977,-0.075000,0.064952
796.150346,-0.175000,0.073951
796.183714,0.050000,0.043301
796.217083,0.075000,0.119242
796.250451,0.050000,0.204634
796.283818,0.525000,0.270127
796.317186,0.000000,0.176777
796.350553,0.400000,0.287228
796.383920,-0.100000,0.035355
796.417286,0.200000,0.093541
796.450653,-0.075000,0.064952
796.484019,-0.050000,0.103078
796.517384,0.100000,0.035355
796.550750,0.575000,0.298695
796.584115,0.325000,0.170935
796.617480,-0.125000,0.102317
796.650844,0.025000,0.170935
796.684209,0.325000,0.073951
796.717573,-0.025000,0.155624
796.750936,0.250000,0.055902
796.784300,0.100000,0.061237
796.817663,0.225000,0.178098
796.851026,0.150000,0.167705
796.884388,-0.150000,0.082916
796.917751,0.125000,0.181573
796.951113,0.100000,0.070711
796.984474,0.500000,0.231840
797.017836,0.100000,0.035355
797.051197,0.400000,0.375832
797.084558,0.250000,0.090139
797.117918,0.600000,0.291548
797.151279,1.825000,0.341641
797.184639,8.050000,0.535607
797.217998,19.625000,0.283670
797.251358,33.166667,1.620314
797.284717,50.533333,1.240128
797.318076,33.425000,2.127609
797.351434,9.633333,0.159426
797.384793,4.275000,0.378112
797.418151,1.325000,0.405239
797.451508,0.500000,0.176777
797.484866,0.225000,0.054486
797.518223,0.200000,0.111803
797.551580,0.025000,0.089268
797.584936,0.175000,0.221853
797.618292,-0.050000,0.075000
797.651648,0.025000,0.054486
797.685004,-0.100000,0.035355
797.718360,0.275000,0.155624
797.751715,0.350000,0.160078
797.785069,0.300000,0.000000
797.818424,0.175000,0.108253
797.851778,0.675000,0.232849
797.885132,-0.375000,0.096014
797.918486,0.325000,0.138632
797.951839,0.050000,0.129904
797.985192,0.100000,0.127475
798.018545,0.250000,0.192029
798.051898,0.275000,0.054486
798.085250,0.125000,0.134048
798.118602,0.375000,0.270127
798.151954,-0.075000,0.119242
798.185305,0.525000,0.373120
798.218656,0.200000,0.106066
798.252007,0.175000,0.041458
798.285357,0.525000,0.279229
798.318708,0.425000,0.235518
798.352057,0.275000,0.163459
798.385407,0.575000,0.341641
798.418756,-0.025000,0.216145
798.452106,0.250000,0.075000
798.485454,-0.050000,0.114564
798.518803,0.400000,0.196850
798.552151,-0.100000,0.035355
798.585499,0.075000,0.073951
798.618847,-0.200000,0.061237
798.652194,0.000000,0.093541
798.685541,0.400000,0.262202
798.718888,0.525000,0.235518
798.752234,0.125000,0.129301
798.785580,0.375000,0.054486
798.818926,0.175000,0.151554
798.852272,-0.050000,0.055902
798.885617,-0.050000,0.178536
798.918962,0.125000,0.021651
798.952307,0.150000,0.167705
798.985651,0.225000,0.041458
799.018996,0.525000,0.096014
799.052339,1.825000,0.232849
799.085683,8.050000,0.517808
799.119026,28.600000,1.039832
799.152369,49.475000,1.212629
799.185712,65.800000,0.851469
799.219054,49.066667,2.477482
799.252397,17.375000,1.116566
799.285738,5.025000,0.541266
799.319080,0.550000,0.143614
799.352421,0.325000,0.167239
799.385762,0.350000,0.103078
799.419103,0.275000,0.170935
799.452443,-0.125000,0.021651
799.485783,0.050000,0.134629
799.519123,0.225000,0.119242
799.552463,0.025000,0.089268
799.585802,0.400000,0.127475
799.619141,0.325000,0.283670
799.652480,-0.025000,0.138632
799.685818,-0.150000,0.055902
799.719156,0.275000,0.134048
799.752494,0.925000,0.354216
799.785831,0.225000,0.064952
799.819169,0.625000,0.320887
799.852506,0.175000,0.089268
799.885842,-0.025000,0.155624
799.919179,0.025000,0.143069
799.952515,0.350000,0.201556
799.985850,0.225000,0.124373
800.019186,-0.025000,0.108253
800.052521,0.275000,0.201168
800.085856,0.075000,0.210283
800.119191,0.825000,0.188331
800.152525,0.225000,0.163459
800.185859,0.075000,0.041458
800.219193,0.200000,0.079057
800.252526,0.550000,0.167705
800.285859,0.050000,0.103078
800.319192,0.300000,0.127475
800.352525,0.200000,0.093541
800.385857,0.100000,0.035355
800.419189,0.325000,0.124373
800.452521,0.300000,0.154110
800.485852,0.425000,0.124373
800.519183,0.650000,0.334477
800.552514,0.175000,0.081968
800.585844,-0.275000,0.337963
800.619175,0.175000,0.213234
800.652505,0.475000,0.129301
800.685834,0.550000,0.175000
800.719164,0.350000,0.143614
800.752493,0.400000,0.162019
800.785821,0.225000,0.073951
800.819150,0.225000,0.143069
800.852478,0.375000,0.138632
800.885806,0.550000,0.420565
800.919134,1.050000,0.235850
800.952461,2.200000,0.733996
800.985788,11.450000,0.859142
801.019115,48.050000,1.213209
801.052441,109.600000,4.548077
801.085767,159.225000,2.201810
801.119093,149.433333,5.265730
801.152419,55.100000,0.976601
801.185744,14.250000,1.536839
801.219069,2.375000,0.538952
801.252394,1.025000,0.460129
801.285718,0.475000,0.424816
801.319042,0.600000,0.242384
801.352366,0.100000,0.127475
801.385690,0.750000,0.256174
801.419013,-0.000000,0.269258
801.452336,0.750000,0.371652
801.485658,0.300000,0.093541
801.518981,0.900000,0.393700
801.552303,0.425000,0.276981
801.585625,0.475000,0.201168
801.618946,0.300000,0.358818
801.652267,0.000000,0.127475
801.685588,0.450000,0.160078
801.718909,0.450000,0.256174
801.752229,0.300000,0.061237
801.785549,0.275000,0.129301
801.818869,0.225000,0.081968
801.852188,0.225000,0.113880
801.885507,0.650000,0.182003
801.918826,0.325000,0.054486
801.952145,-0.075000,0.108253
801.985463,-0.025000,0.064952
802.018781,0.625000,0.113880
802.052099,0.175000,0.089268
802.085416,0.525000,0.213234
802.118733,0.350000,0.188746
802.152050,0.050000,0.043301
802.185366,0.250000,0.125000
802.218683,0.375000,0.184983
802.251999,0.175000,0.119242
802.285314,-0.350000,0.114564
802.318630,0.425000,0.081968
802.351945,0.100000,0.162019
802.385259,-0.075000,0.021651
802.418574,0.350000,0.114564
802.451888,0.275000,0.113880
802.485202,0.600000,0.379144
802.518515,0.425000,0.514022
802.551829,0.150000,0.043301
802.585142,0.325000,0.073951
802.618454,0.450000,0.258602
802.651767,0.750000,0.286138
802.685079,-0.525000,0.143069
802.718391,0.325000,0.096014
802.751702,0.275000,0.147373
802.785013,0.400000,0.106066
802.818324,0.325000,0.096014
802.851635,0.875000,0.216145
802.884945,3.575000,0.194856
802.918255,27.675000,1.157786
802.951565,84.450000,2.228929
802.984874,163.775000,3.849411
803.018184,205.050000,3.386093
803.051492,136.566667,1.768238
803.084801,38.566667,0.496655
803.118109,7.675000,0.872765
803.151417,0.775000,0.383039
803.184725,0.325000,0.143069
803.218032,0.300000,0.035355
803.251339,0.425000,0.221853
803.284646,0.225000,0.343466
803.317953,0.425000,0.207289
803.351259,-0.025000,0.054486
803.384565,0.225000,0.163459
803.417870,0.175000,0.102317
803.451176,0.450000,0.152069
803.484481,0.300000,0.165831
803.517786,0.575000,0.219018
803.551090,0.275000,0.201168
803.584394,0.125000,0.041458
803.617698,0.075000,0.147373
803.651002,0.275000,0.108253
803.684305,0.200000,0.145774
803.717608,0.325000,0.300780
803.750910,0.700000,0.430116
803.784213,1.075000,0.343466
803.817515,0.375000,0.124373
803.850817,0.125000,0.224653
803.884118,0.500000,0.093541
803.917419,0.725000,0.224653
803.950720,0.375000,0.143069
803.984021,0.225000,0.041458
804.017321,1.175000,0.330483
804.050621,0.425000,0.155624
804.083921,0.700000,0.367423
804.117220,0.800000,0.462331
804.150519,0.200000,0.183712
804.183818,0.475000,0.219018
804.217117,0.375000,0.429207
804.250415,0.525000,0.129301
804.283713,0.675000,0.143069
804.317011,0.700000,0.384057
804.350308,0.150000,0.075000
804.383605,0.300000,0.136931
804.416902,0.650000,0.082916
804.450198,0.700000,0.209165
804.483494,0.850000,0.277263
804.516790,0.300000,0.117260
804.550086,-0.050000,0.082916
804.583381,0.200000,0.404660
804.616676,0.325000,0.054486
804.649971,0.900000,0.273861
804.683265,0.400000,0.226385
804.716559,0.475000,0.255869
804.749853,1.275000,0.411362
804.783146,1.200000,0.582022
804.816440,4.675000,0.505439
804.849732,34.225000,1.659207
804.883025,119.433333,4.005673
804.916317,225.675000,0.963311
804.949609,256.650000,4.720898
804.982901,184.875000,4.127859
805.016192,41.975000,1.735791
805.049484,8.600000,0.892328
805.082774,1.150000,0.564026
805.116065,0.575000,0.219018
805.149355,0.600000,0.308221
805.182645,0.500000,0.154110
805.215935,0.400000,0.106066
805.249224,0.475000,0.213234
805.282513,0.500000,0.223607
805.315802,0.400000,0.117260
805.349090,0.350000,0.160078
805.382378,0.575000,0.355976
805.415666,0.075000,0.021651
805.448954,0.400000,0.122474
805.482241,0.450000,0.317214
805.515528,1.600000,0.590551
805.548815,0.725000,0.224653
805.582101,0.250000,0.075000
805.615387,0.075000,0.041458
805.648673,0.675000,0.151554
805.681958,0.300000,0.237171
805.715243,0.400000,0.154110
805.748528,1.200000,0.127475
805.781813,0.475000,0.143069
805.815097,1.125000,0.255869
805.848381,0.425000,0.216145
805.881665,1.625000,0.454663
805.914948,0.500000,0.145774
805.948231,-0.150000,0.082916
805.981514,0.450000,0.082916
806.014796,0.800000,0.410792
806.048079,1.350000,0.167705
806.081360,0.100000,0.150000
806.114642,0.300000,0.203101
806.147923,0.650000,0.227761
806.181204,0.125000,0.096014
806.214485,0.000000,0.127475
806.247765,0.350000,0.328824
806.281046,0.750000,0.279508
806.314325,0.175000,0.213234
806.347605,0.725000,0.207289
806.380884,-0.150000,0.204634
806.414163,0.400000,0.127475
806.447441,0.500000,0.070711
806.480720,0.575000,0.151554
806.513998,0.350000,0.167705
806.547275,0.675000,0.238157
806.580553,0.575000,0.201168
806.613830,0.475000,0.207289
806.647107,0.750000,0.317214
806.680383,1.200000,0.501248
806.713659,1.375000,0.181573
806.746935,4.875000,0.417395
806.780211,33.400000,1.055936
806.813486,166.100000,3.553168
806.846761,370.900000,3.273187
806.880036,495.775000,1.810516
806.913310,423.475000,12.047685
806.946584,112.000000,2.619160
806.979858,19.350000,1.402899
807.013132,4.775000,0.853943
807.046405,1.225000,0.337963
807.079678,1.100000,0.424264
807.112951,0.225000,0.081968
807.146223,-0.025000,0.041458
807.179495,0.750000,0.419076
807.212767,-0.650000,0.082916
807.246038,0.300000,0.206155
807.279309,-0.075000,0.041458
807.312580,0.500000,0.445814
807.345850,0.025000,0.129301
807.379121,0.575000,0.151554
807.412390,0.825000,0.188331
807.445660,0.200000,0.111803
807.478929,0.750000,0.175000
807.512198,1.175000,0.343466
807.545467,0.025000,0.041458
807.578735,0.150000,0.143614
807.612004,-0.375000,0.339807
807.645271,0.875000,0.178098
807.678539,-0.125000,0.163459
807.711806,1.575000,0.501716
807.745073,0.775000,0.412879
807.778340,0.875000,0.387903
807.811606,0.950000,0.261008
807.844872,1.450000,0.167705
807.878138,0.600000,0.337268
807.911403,0.200000,0.169558
807.944668,0.850000,0.195256
807.977933,0.175000,0.113880
808.011197,0.650000,0.311247
808.044462,1.050000,0.213600
808.077725,0.300000,0.093541
808.110989,0.575000,0.290205
808.144252,0.625000,0.073951
808.177515,0.900000,0.344601
808.210778,0.675000,0.330483
808.244040,0.475000,0.064952
808.277302,0.375000,0.298695
808.310564,0.900000,0.350000
808.343826,0.525000,0.064952
808.377087,0.900000,0.234521
808.410348,0.875000,0.207289
808.443608,0.825000,0.350669
808.476869,0.400000,0.127475
808.510129,0.850000,0.396074
808.543388,0.825000,0.272431
808.576648,0.875000,0.357727
808.609907,0.350000,0.143614
808.643165,1.550000,0.388104
808.676424,2.425000,0.447737
808.709682,18.600000,1.291317
808.742940,119.150000,2.759189
808.776197,444.250000,7.447357
808.809455,697.375000,15.699736
808.842712,702.125000,6.364096
808.875968,375.675000,12.285987
808.909225,62.900000,2.233551
808.942481,11.425000,0.873481
808.975736,2.300000,0.470372
809.008992,1.125000,0.201168
809.042247,0.775000,0.298695
809.075502,0.050000,0.134629
809.108756,-0.375000,0.147373
809.142011,0.425000,0.238157
809.175265,0.550000,0.277263
809.208518,0.550000,0.175000
809.241772,0.325000,0.113880
809.275025,0.375000,0.198037
809.308277,0.075000,0.108253
809.341530,0.325000,0.155624
809.374782,0.800000,0.252488
809.408034,0.475000,0.124373
809.441285,-0.150000,0.043301
809.474536,0.300000,0.231840
809.507787,0.550000,0.227761
809.541038,0.375000,0.134048
809.574288,0.700000,0.297909
809.607538,0.525000,0.400586
809.640788,0.675000,0.232849
809.674037,1.100000,0.337268
809.707286,0.575000,0.174553
809.740535,1.575000,0.064952
809.773783,2.325000,0.434993
809.807032,1.300000,0.351781
809.840279,0.225000,0.167239
809.873527,0.525000,0.184983
809.906774,1.275000,0.113880
809.940021,0.825000,0.240767
809.973268,1.100000,0.127475
810.006514,0.800000,0.220794
810.039760,0.725000,0.440703
810.073006,0.400000,0.165831
810.106251,1.425000,0.468208
810.139497,1.225000,0.270127
810.172741,1.050000,0.251247
810.205986,1.000000,0.257391
810.239230,0.375000,0.198037
810.272474,2.475000,0.411362
810.305718,2.825000,0.534293
810.338961,1.450000,0.235850
810.372204,1.425000,0.583497
810.405447,0.925000,0.276981
810.438689,1.825000,0.290205
810.471931,1.400000,0.266927
810.505173,1.175000,0.272431
810.538414,2.300000,0.428661
810.571656,1.725000,0.294480
810.604897,3.075000,0.270127
810.638137,5.700000,0.324037
810.671377,36.025000,2.864955
810.704617,262.350000,7.895450
810.737857,969.400000,13.722381
810.771096,1444.750000,16.444775
810.804335,1292.100000,5.570346
810.837574,606.700000,5.162243
810.870813,93.500000,2.418936
810.904051,16.500000,1.531747
810.937288,4.225000,0.267804
810.970526,0.900000,0.183712
811.003763,0.725000,0.378112
811.037000,0.375000,0.265460
811.070237,0.650000,0.225000
811.103473,-0.325000,0.143069
811.136709,0.025000,0.324760
811.169945,-0.250000,0.125000
811.203180,0.125000,0.064952
811.236415,0.250000,0.043301
811.269650,0.950000,0.334477
811.302884,0.775000,0.167239
811.336119,0.375000,0.302851
811.369352,1.450000,0.248747
811.402586,3.025000,0.554949
811.435819,3.875000,0.604540
811.469052,6.400000,1.762456
811.502285,2.200000,1.072963
811.535517,2.500000,0.544289
811.568749,1.250000,0.915492
811.601981,3.125000,0.167239
811.635212,0.775000,0.354216
811.668443,1.375000,0.714471
811.701674,1.025000,0.300780
811.734905,1.025000,0.343466
811.768135,1.125000,0.386288
811.801365,1.500000,0.594769
811.834594,0.850000,0.403887
811.867824,0.600000,0.325960
811.901053,0.575000,0.324760
811.934281,0.075000,0.129301
811.967510,-0.300000,0.070711
812.000738,0.275000,0.113880
812.033965,0.225000,0.129301
812.067193,-0.100000,0.231840
812.100420,0.500000,0.306186
812.133647,1.025000,0.314990
812.166873,-0.600000,0.450000
812.200099,0.400000,0.217945
812.233325,0.075000,0.178098
812.266551,0.400000,0.384057
812.299776,0.400000,0.196850
812.333001,0.750000,0.251247
812.366226,1.700000,0.451387
812.399450,0.175000,0.155624
812.432674,0.500000,0.215058
812.465898,-0.400000,0.127475
812.499121,0.200000,0.158114
812.532345,0.475000,0.147373
812.565567,0.600000,0.050000
812.598790,1.750000,0.430842
812.632012,7.200000,0.358818
812.665234,61.975000,2.416706
812.698456,285.333333,1.192337
812.731677,570.925000,14.675804
812.764898,556.375000,6.381161
812.798119,294.975000,5.139355
812.831339,40.100000,2.670908
812.864559,8.975000,1.118802
812.897779,0.975000,0.270127
812.930998,0.250000,0.082916
812.964217,0.700000,0.183712
812.997436,0.350000,0.241091
813.030655,0.325000,0.124373
813.063873,-0.150000,0.025000
813.097091,0.225000,0.081968
813.130308,-0.300000,0.122474
813.163526,0.450000,0.279508
813.196743,-0.050000,0.134629
813.229959,0.675000,0.343466
813.263176,0.400000,0.242384
813.296392,-0.325000,0.021651
813.329607,0.125000,0.096014
813.362823,0.150000,0.055902
813.396038,0.100000,0.229129
813.429253,-0.150000,0.114564
813.462467,-0.250000,0.082916
813.495682,0.350000,0.213600
813.528895,-0.025000,0.089268
813.562109,-0.125000,0.041458
813.595322,0.275000,0.102317
813.628535,0.850000,0.192029
813.661748,0.475000,0.181573
813.694960,0.200000,0.234521
813.728172,-0.175000,0.064952
813.761384,-0.050000,0.143614
813.794596,-0.200000,0.162019
813.827807,-0.000000,0.229129
813.861017,0.300000,0.333542
813.894228,0.075000,0.108253
813.927438,0.650000,0.108972
813.960648,0.525000,0.064952
813.993858,-0.000000,0.093541
814.027067,0.000000,0.035355
814.060276,0.050000,0.188746
814.093485,-0.125000,0.134048
814.126693,0.050000,0.175000
814.159901,-0.350000,0.025000
814.193109,-0.175000,0.124373
814.226316,0.525000,0.155624
814.259523,0.150000,0.103078
814.292730,0.275000,0.245904
814.325936,0.325000,0.096014
814.359143,0.375000,0.306951
814.392348,0.150000,0.134629
814.425554,0.075000,0.081968
814.458759,0.250000,0.147902
814.491964,0.200000,0.280624
814.525169,0.300000,0.358818
814.558373,0.175000,0.213234
814.591577,0.325000,0.089268
814.624781,0.550000,0.368273
814.657984,0.825000,0.216145
