#{
#    "background_file": "Backgrounds\\\\bg_787.999nm_16bin_197st_244en_10.0s_110g_4x_1_seq.txt",
#    "ccd_image_settings": [
#        1,
#        16,
#        1,
#        1600,
#        197,
#        244
#    ],
#    "ccd_temperature": "-88",
#    "cdRatios": {
#        "mean": 0.9426320218655804,
#        "std": 0.004696584151263752
#    },
#    "center_lambda": 788.0,
#    "comments": "",
#    "dark_region": 0.3550194628614277,
#    "date": "11/17/19 15:03:53PM",
#    "eff_field": 1.5,
#    "exposure": 10.0,
#    "fel_lambda": "15.0",
#    "fel_pol": "H",
#    "fel_pulses": 40,
#    "fel_pyro_cal": "0.017",
#    "fel_reprate": "1.07",
#    "fel_transmission": "1.0",
#    "fel_transmission_fits": {
#        "A": 1.0,
#        "C": 0.0,
#        "Mu": 0.0
#    },
#    "fieldInt": {
#        "mean": 8905.614795454545,
#        "std": 431.5616516491207
#    },
#    "fieldStrength": {
#        "mean": 43.285863636363636,
#        "std": 1.049549372968276
#    },
#    "fpTime": {
#        "mean": 1.0093004315387033,
#        "std": 0.045038584454491604
#    },
#    "gain": 110,
#    "grating": 3,
#    "images_in_sequence": [
#        "hsg_SpotD_crystal16_a00_HAna249.txt",
#        "hsg_SpotD_crystal16_a00_HAna250.txt",
#        "hsg_SpotD_crystal16_a00_HAna251.txt",
#        "hsg_SpotD_crystal16_a00_HAna252.txt"
#    ],
#    "nir_lambda": "820.9918",
#    "nir_pola": "00",
#    "nir_polg": "0",
#    "nir_power": "100.0",
#    "pulseEnergies": {
#        "mean": 1.8952045454545454,
#        "std": 0.09903729105915554
#    },
#    "pyroVoltage": {
#        "mean": 0.11830723324356547,
#        "std": 0.0066525569507604925
#    },
#    "rotatorAngle": 292.49999633788167,
#    "sample_Temp": "58",
#    "sample_name": "L001218.C3",
#    "series": "SpotD_16_00",
#    "slits": "60",
#    "spec_step": "",
#    "window_trans": 0.92,
#    "y_max": 2,
#    "y_min": 1
#}
#
#
#
#
#
#
#
#
#
#
#
#
#
#
#
#
#
#
#
#
#
#
#
#
#
#
Wavelength,Signal,error
nm,arb. u.,arb.u.
Wavelength,SpotD_16_00,error
761.200217,0.075000,0.073951
761.233859,-0.050000,0.103078
761.267500,0.350000,0.103078
761.301141,-0.150000,0.055902
761.334781,0.050000,0.055902
761.368422,0.200000,0.215058
761.402062,0.175000,0.089268
761.435702,-0.400000,0.070711
761.469342,-0.050000,0.103078
761.502981,0.050000,0.055902
761.536620,0.275000,0.108253
761.570259,-0.225000,0.054486
761.603898,0.075000,0.124373
761.637537,0.025000,0.113880
761.671175,-0.075000,0.102317
761.704813,0.300000,0.117260
761.738451,0.000000,0.050000
761.772088,-0.125000,0.124373
761.805726,-0.150000,0.025000
761.839363,0.100000,0.141421
761.873000,-0.400000,0.079057
761.906636,0.000000,0.061237
761.940273,0.275000,0.216145
761.973909,0.475000,0.383039
762.007545,0.275000,0.073951
762.041180,-0.225000,0.096014
762.074816,0.375000,0.194856
762.108451,0.000000,0.035355
762.142086,0.500000,0.158114
762.175720,0.150000,0.167705
762.209355,0.125000,0.155624
762.242989,0.175000,0.054486
762.276623,-0.025000,0.108253
762.310257,-0.050000,0.075000
762.343890,-0.375000,0.054486
762.377524,0.050000,0.147902
762.411157,0.175000,0.155624
762.444789,0.100000,0.086603
762.478422,0.375000,0.147373
762.512054,0.000000,0.079057
762.545686,0.150000,0.103078
762.579318,0.250000,0.160078
762.612950,0.125000,0.021651
762.646581,-0.300000,0.035355
762.680212,-0.025000,0.073951
762.713843,0.300000,0.154110
762.747474,0.275000,0.064952
762.781104,-0.025000,0.184983
762.814734,-0.450000,0.114564
762.848364,-0.350000,0.055902
762.881994,-0.025000,0.096014
762.915623,0.250000,0.082916
762.949252,0.250000,0.225000
762.982881,0.125000,0.064952
763.016510,0.000000,0.035355
763.050139,-0.150000,0.043301
763.083767,-0.025000,0.073951
763.117395,0.225000,0.188331
763.151023,0.050000,0.082916
763.184650,0.225000,0.041458
763.218277,-0.100000,0.061237
763.251904,-0.150000,0.025000
763.285531,0.100000,0.093541
763.319158,0.400000,0.093541
763.352784,0.100000,0.176777
763.386410,-0.250000,0.219374
763.420036,-0.225000,0.119242
763.453661,1.550000,0.570636
763.487287,0.100000,0.242384
763.520912,-0.750000,0.192029
763.554537,0.500000,0.206155
763.588161,-0.125000,0.021651
763.621786,0.100000,0.061237
763.655410,0.075000,0.041458
763.689034,-0.225000,0.041458
763.722657,0.025000,0.143069
763.756281,0.125000,0.102317
763.789904,0.350000,0.251247
763.823527,0.725000,0.332368
763.857150,-0.025000,0.096014
763.890772,-0.075000,0.064952
763.924394,0.375000,0.143069
763.958016,0.575000,0.238157
763.991638,0.475000,0.124373
764.025260,0.175000,0.073951
764.058881,0.175000,0.054486
764.092502,-0.275000,0.089268
764.126123,0.150000,0.129904
764.159743,-0.100000,0.070711
764.193363,0.175000,0.245904
764.226983,0.400000,0.203101
764.260603,0.200000,0.079057
764.294223,-0.025000,0.021651
764.327842,0.375000,0.324760
764.361461,0.125000,0.124373
764.395080,0.425000,0.174553
764.428699,-0.175000,0.064952
764.462317,0.275000,0.134048
764.495935,-0.100000,0.061237
764.529553,0.100000,0.206155
764.563170,0.275000,0.188331
764.596788,0.400000,0.093541
764.630405,-0.200000,0.079057
764.664022,0.225000,0.204252
764.697638,0.100000,0.035355
764.731255,0.025000,0.081968
764.764871,0.025000,0.089268
764.798487,0.050000,0.207666
764.832103,-0.025000,0.054486
764.865718,0.050000,0.075000
764.899333,0.075000,0.064952
764.932948,0.175000,0.096014
764.966563,0.150000,0.261008
765.000177,0.200000,0.117260
765.033792,0.075000,0.096014
765.067406,0.650000,0.283945
765.101019,0.375000,0.167239
765.134633,-0.425000,0.064952
765.168246,0.300000,0.237171
765.201859,0.425000,0.248433
765.235472,0.225000,0.081968
765.269084,0.600000,0.150000
765.302697,-0.175000,0.041458
765.336309,-0.100000,0.061237
765.369920,0.300000,0.127475
765.403532,-0.100000,0.035355
765.437143,-0.175000,0.041458
765.470754,0.400000,0.127475
765.504365,0.000000,0.050000
765.537976,0.575000,0.276981
765.571586,-0.200000,0.035355
765.605196,-0.075000,0.174553
765.638806,-0.050000,0.055902
765.672416,0.375000,0.224653
765.706025,0.150000,0.103078
765.739634,0.125000,0.096014
765.773243,0.400000,0.145774
765.806851,-0.050000,0.075000
765.840460,0.050000,0.055902
765.874068,0.300000,0.141421
765.907676,-0.075000,0.073951
765.941284,0.275000,0.129301
765.974891,0.375000,0.337963
766.008498,0.050000,0.114564
766.042105,-0.050000,0.129904
766.075712,-0.225000,0.073951
766.109318,-0.150000,0.125000
766.142924,0.175000,0.240767
766.176530,0.025000,0.221853
766.210136,-0.150000,0.055902
766.243741,0.200000,0.234521
766.277347,0.000000,0.079057
766.310951,0.025000,0.129301
766.344556,0.050000,0.090139
766.378161,0.325000,0.134048
766.411765,-0.025000,0.124373
766.445369,-0.100000,0.079057
766.478973,0.050000,0.108972
766.512576,0.175000,0.124373
766.546179,0.000000,0.100000
766.579782,0.125000,0.089268
766.613385,0.000000,0.035355
766.646988,-0.125000,0.054486
766.680590,-0.000000,0.093541
766.714192,0.100000,0.050000
766.747794,-0.050000,0.075000
766.781395,0.375000,0.096014
766.814996,0.325000,0.348882
766.848597,-0.075000,0.113880
766.882198,0.125000,0.096014
766.915799,0.225000,0.054486
766.949399,0.075000,0.041458
766.982999,0.250000,0.160078
767.016599,-0.050000,0.134629
767.050198,0.300000,0.215058
767.083798,-0.050000,0.090139
767.117397,0.000000,0.061237
767.150996,-0.150000,0.075000
767.184594,-0.225000,0.089268
767.218193,0.425000,0.219018
767.251791,-0.100000,0.079057
767.285389,-0.200000,0.061237
767.318986,0.075000,0.096014
767.352583,0.250000,0.143614
767.386181,0.100000,0.117260
767.419777,-0.125000,0.041458
767.453374,0.200000,0.035355
767.486970,-0.325000,0.021651
767.520567,0.050000,0.055902
767.554162,0.225000,0.113880
767.587758,1.075000,0.588828
767.621353,0.675000,0.272431
767.654949,0.000000,0.050000
767.688543,0.050000,0.108972
767.722138,0.275000,0.178098
767.755732,0.175000,0.073951
767.789327,-0.075000,0.064952
767.822921,-0.200000,0.079057
767.856514,-0.175000,0.108253
767.890108,0.150000,0.188746
767.923701,0.075000,0.054486
767.957294,0.850000,0.309233
767.990886,0.550000,0.075000
768.024479,0.050000,0.082916
768.058071,0.050000,0.082916
768.091663,-0.275000,0.089268
768.125255,0.075000,0.129301
768.158846,0.075000,0.119242
768.192437,-0.325000,0.138632
768.226028,-0.125000,0.041458
768.259619,0.150000,0.025000
768.293209,0.325000,0.213234
768.326799,0.125000,0.129301
768.360389,0.100000,0.061237
768.393979,-0.050000,0.055902
768.427568,0.650000,0.268095
768.461158,0.200000,0.145774
768.494747,-0.050000,0.043301
768.528335,0.025000,0.081968
768.561924,0.300000,0.050000
768.595512,0.150000,0.108972
768.629100,0.225000,0.054486
768.662688,-0.100000,0.035355
768.696275,-0.100000,0.061237
768.729862,0.025000,0.138632
768.763449,-0.050000,0.025000
768.797036,-0.125000,0.021651
768.830623,0.475000,0.119242
768.864209,-0.050000,0.025000
768.897795,0.150000,0.143614
768.931381,0.050000,0.075000
768.964966,-0.175000,0.073951
768.998551,0.150000,0.134629
769.032136,-0.075000,0.096014
769.065721,0.175000,0.181573
769.099305,-0.100000,0.061237
769.132890,0.200000,0.117260
769.166474,0.600000,0.242384
769.200057,-0.050000,0.075000
769.233641,0.375000,0.384667
769.267224,0.050000,0.103078
769.300807,-0.375000,0.096014
769.334390,0.125000,0.174553
769.367972,0.450000,0.167705
769.401555,-0.050000,0.129904
769.435137,-0.275000,0.041458
769.468718,0.525000,0.265460
769.502300,-0.075000,0.064952
769.535881,-0.050000,0.075000
769.569462,-0.225000,0.143069
769.603043,-0.050000,0.090139
769.636623,0.825000,0.536627
769.670204,-0.150000,0.108972
769.703784,0.825000,0.318934
769.737364,0.325000,0.054486
769.770943,0.075000,0.054486
769.804522,0.700000,0.316228
769.838101,-0.100000,0.079057
769.871680,-0.075000,0.096014
769.905259,-0.200000,0.111803
769.938837,0.000000,0.117260
769.972415,0.125000,0.163459
770.005993,0.150000,0.055902
770.039570,0.175000,0.147373
770.073147,0.175000,0.073951
770.106724,0.100000,0.111803
770.140301,0.150000,0.103078
770.173878,0.225000,0.283670
770.207454,-0.150000,0.075000
770.241030,0.150000,0.025000
770.274606,0.050000,0.025000
770.308181,0.300000,0.079057
770.341757,0.050000,0.075000
770.375332,0.225000,0.089268
770.408906,0.100000,0.154110
770.442481,-0.150000,0.103078
770.476055,0.100000,0.106066
770.509629,0.175000,0.021651
770.543203,0.075000,0.108253
770.576776,0.100000,0.079057
770.610350,0.325000,0.073951
770.643923,0.150000,0.055902
770.677495,0.075000,0.041458
770.711068,0.025000,0.113880
770.744640,0.150000,0.192029
770.778212,0.650000,0.301040
770.811784,0.025000,0.108253
770.845356,0.250000,0.192029
770.878927,0.325000,0.129301
770.912498,0.100000,0.079057
770.946069,-0.025000,0.108253
770.979639,0.025000,0.041458
771.013209,0.625000,0.235518
771.046779,-0.425000,0.096014
771.080349,0.225000,0.138632
771.113919,0.500000,0.187083
771.147488,0.150000,0.125000
771.181057,0.175000,0.041458
771.214626,-0.050000,0.103078
771.248194,-0.050000,0.025000
771.281762,0.150000,0.175000
771.315330,0.250000,0.129904
771.348898,0.325000,0.096014
771.382465,0.025000,0.073951
771.416033,0.275000,0.167239
771.449600,1.075000,0.213234
771.483166,0.700000,0.273861
771.516733,0.975000,0.191621
771.550299,-0.066667,0.040825
771.583865,0.275000,0.167239
771.617431,0.000000,0.122474
771.650996,0.350000,0.147902
771.684562,-0.050000,0.103078
771.718127,-0.100000,0.050000
771.751691,0.225000,0.081968
771.785256,-0.150000,0.055902
771.818820,-0.075000,0.073951
771.852384,0.200000,0.106066
771.885948,0.000000,0.093541
771.919511,-0.075000,0.073951
771.953074,0.275000,0.216145
771.986637,0.125000,0.041458
772.020200,0.375000,0.073951
772.053762,0.350000,0.305164
772.087325,0.700000,0.379144
772.120887,-0.300000,0.035355
772.154448,0.225000,0.041458
772.188010,0.025000,0.041458
772.221571,0.000000,0.035355
772.255132,0.700000,0.329773
772.288692,0.775000,0.232849
772.322253,0.025000,0.081968
772.355813,0.575000,0.456036
772.389373,-0.325000,0.073951
772.422933,0.425000,0.376456
772.456492,0.400000,0.150000
772.490051,0.200000,0.061237
772.523610,0.300000,0.127475
772.557169,0.075000,0.073951
772.590727,-0.025000,0.096014
772.624285,-0.050000,0.025000
772.657843,0.125000,0.041458
772.691401,-0.375000,0.041458
772.724958,0.225000,0.198037
772.758515,0.400000,0.154110
772.792072,0.050000,0.043301
772.825629,0.125000,0.230149
772.859185,0.425000,0.310996
772.892741,-0.050000,0.055902
772.926297,0.225000,0.113880
772.959853,-0.050000,0.025000
772.993408,-0.725000,0.041458
773.026963,-0.025000,0.054486
773.060518,0.000000,0.061237
773.094073,0.125000,0.204252
773.127627,0.300000,0.154110
773.161181,0.325000,0.064952
773.194735,0.350000,0.192029
773.228289,0.075000,0.089268
773.261842,1.650000,0.482830
773.295395,1.025000,0.276981
773.328948,0.625000,0.263095
773.362500,0.125000,0.073951
773.396053,-0.175000,0.041458
773.429605,0.025000,0.108253
773.463157,0.975000,0.465531
773.496708,0.175000,0.041458
773.530260,0.050000,0.129904
773.563811,-0.175000,0.073951
773.597361,0.000000,0.183712
773.630912,0.250000,0.188746
773.664462,0.425000,0.124373
773.698012,-0.075000,0.064952
773.731562,0.225000,0.184983
773.765111,0.100000,0.061237
773.798661,0.375000,0.188331
773.832210,-0.025000,0.054486
773.865758,0.050000,0.103078
773.899307,0.025000,0.054486
773.932855,0.000000,0.061237
773.966403,-0.075000,0.021651
773.999951,0.050000,0.025000
774.033498,0.025000,0.041458
774.067046,0.200000,0.070711
774.100593,0.225000,0.096014
774.134139,0.200000,0.061237
774.167686,0.425000,0.283670
774.201232,0.200000,0.093541
774.234778,0.350000,0.192029
774.268324,-0.075000,0.119242
774.301869,0.350000,0.192029
774.335414,-0.275000,0.096014
774.368959,0.150000,0.043301
774.402504,0.025000,0.096014
774.436048,-0.125000,0.096014
774.469592,-0.100000,0.061237
774.503136,0.050000,0.075000
774.536680,0.375000,0.392707
774.570223,0.225000,0.096014
774.603766,0.275000,0.073951
774.637309,0.200000,0.000000
774.670852,0.275000,0.054486
774.704394,0.000000,0.079057
774.737936,0.075000,0.041458
774.771478,0.225000,0.397453
774.805020,0.150000,0.114564
774.838561,0.150000,0.125000
774.872102,0.325000,0.081968
774.905643,0.100000,0.093541
774.939183,0.475000,0.155624
774.972724,0.325000,0.191621
775.006264,1.025000,0.456036
775.039804,1.125000,0.147373
775.073343,0.875000,0.198037
775.106882,0.425000,0.041458
775.140421,0.550000,0.332603
775.173960,-0.200000,0.093541
775.207499,0.025000,0.167239
775.241037,0.425000,0.369755
775.274575,-0.075000,0.054486
775.308113,-0.100000,0.050000
775.341650,0.125000,0.108253
775.375187,0.425000,0.124373
775.408724,-0.075000,0.119242
775.442261,-0.125000,0.064952
775.475798,-0.100000,0.035355
775.509334,0.125000,0.064952
775.542870,0.275000,0.314990
775.576405,-0.225000,0.041458
775.609941,0.300000,0.079057
775.643476,0.225000,0.089268
775.677011,-0.300000,0.050000
775.710546,0.125000,0.041458
775.744080,0.300000,0.117260
775.777614,0.025000,0.021651
775.811148,0.050000,0.075000
775.844682,0.125000,0.119242
775.878215,-0.050000,0.195256
775.911748,1.100000,0.659545
775.945281,0.175000,0.073951
775.978814,0.000000,0.206155
776.012346,0.175000,0.064952
776.045878,0.075000,0.081968
776.079410,0.450000,0.152069
776.112941,0.225000,0.064952
776.146473,0.100000,0.093541
776.180004,0.250000,0.125000
776.213535,0.100000,0.035355
776.247065,0.350000,0.175000
776.280595,-0.025000,0.054486
776.314125,0.325000,0.343466
776.347655,-0.125000,0.096014
776.381185,-0.225000,0.041458
776.414714,0.275000,0.054486
776.448243,0.250000,0.332603
776.481772,0.050000,0.108972
776.515300,0.325000,0.207289
776.548828,0.050000,0.103078
776.582356,0.200000,0.217945
776.615884,0.025000,0.113880
776.649411,-0.025000,0.054486
776.682938,0.000000,0.035355
776.716465,0.100000,0.070711
776.749992,0.075000,0.108253
776.783518,1.000000,0.302076
776.817044,0.500000,0.136931
776.850570,1.450000,0.294746
776.884096,1.875000,0.073951
776.917621,0.625000,0.163459
776.951146,0.550000,0.238485
776.984671,-0.350000,0.043301
777.018196,0.075000,0.064952
777.051720,0.125000,0.064952
777.085244,0.175000,0.064952
777.118768,-0.275000,0.113880
777.152292,-0.050000,0.114564
777.185815,0.575000,0.163459
777.219338,-0.125000,0.124373
777.252861,0.475000,0.302851
777.286383,0.125000,0.041458
777.319905,0.225000,0.267804
777.353427,0.275000,0.163459
777.386949,0.625000,0.400586
777.420471,0.225000,0.064952
777.453992,-0.050000,0.055902
777.487513,0.225000,0.054486
777.521033,-0.250000,0.055902
777.554554,-0.075000,0.207289
777.588074,0.125000,0.021651
777.621594,0.175000,0.054486
777.655114,0.275000,0.143069
777.688633,0.300000,0.127475
777.722152,0.150000,0.055902
777.755671,0.025000,0.041458
777.789190,0.225000,0.174553
777.822708,-0.200000,0.061237
777.856226,0.275000,0.096014
777.889744,0.275000,0.155624
777.923261,0.425000,0.288043
777.956779,0.100000,0.136931
777.990296,0.100000,0.061237
778.023812,0.550000,0.192029
778.057329,-0.075000,0.089268
778.090845,0.325000,0.081968
778.124361,0.275000,0.102317
778.157877,-0.050000,0.103078
778.191392,-0.025000,0.102317
778.224908,0.125000,0.147373
778.258423,0.300000,0.136931
778.291937,-0.025000,0.064952
778.325452,-0.025000,0.021651
778.358966,-0.150000,0.043301
778.392480,0.075000,0.054486
778.425993,0.050000,0.114564
778.459507,0.050000,0.082916
778.493020,0.025000,0.089268
778.526533,0.125000,0.073951
778.560045,-0.225000,0.054486
778.593558,0.275000,0.276981
778.627070,0.866667,0.381335
778.660582,2.000000,0.410792
778.694093,2.275000,0.300780
778.727605,2.150000,0.840015
778.761116,0.100000,0.183712
778.794626,0.300000,0.079057
778.828137,0.100000,0.070711
778.861647,0.175000,0.054486
778.895157,0.175000,0.064952
778.928667,0.075000,0.102317
778.962176,-0.050000,0.082916
778.995686,0.175000,0.155624
779.029194,0.050000,0.082916
779.062703,0.175000,0.089268
779.096212,0.075000,0.054486
779.129720,0.425000,0.143069
779.163228,-0.025000,0.073951
779.196735,0.250000,0.103078
779.230243,-0.675000,0.089268
779.263750,-0.025000,0.064952
779.297257,0.150000,0.055902
779.330763,0.250000,0.147902
779.364269,-0.025000,0.064952
779.397776,0.175000,0.054486
779.431281,0.025000,0.108253
779.464787,0.125000,0.113880
779.498292,0.100000,0.061237
779.531797,0.350000,0.025000
779.565302,0.275000,0.081968
779.598806,0.325000,0.283670
779.632311,0.200000,0.079057
779.665814,0.650000,0.114564
779.699318,0.200000,0.000000
779.732822,0.225000,0.041458
779.766325,0.150000,0.055902
779.799828,0.300000,0.145774
779.833330,0.250000,0.043301
779.866833,0.100000,0.293684
779.900335,0.225000,0.102317
779.933837,0.075000,0.081968
779.967338,0.050000,0.075000
780.000840,0.000000,0.117260
780.034341,0.100000,0.190394
780.067841,0.125000,0.113880
780.101342,-0.025000,0.073951
780.134842,0.250000,0.043301
780.168342,0.125000,0.108253
780.201842,0.175000,0.073951
780.235341,0.200000,0.061237
780.268841,0.175000,0.134048
780.302340,0.000000,0.035355
780.335838,0.125000,0.073951
780.369337,0.025000,0.064952
780.402835,1.025000,0.308980
780.436333,1.675000,0.260708
780.469830,2.300000,0.318198
780.503328,2.725000,0.387903
780.536825,3.000000,0.486056
780.570322,1.200000,0.664267
780.603818,0.450000,0.152069
780.637315,-0.075000,0.108253
780.670811,0.475000,0.314990
780.704306,0.400000,0.162019
780.737802,0.250000,0.082916
780.771297,0.150000,0.219374
780.804792,0.250000,0.055902
780.838287,0.425000,0.207289
780.871781,-0.050000,0.055902
780.905276,0.100000,0.106066
780.938770,0.100000,0.154110
780.972263,0.025000,0.113880
781.005757,0.050000,0.025000
781.039250,0.025000,0.021651
781.072743,0.100000,0.093541
781.106235,-0.100000,0.035355
781.139728,0.000000,0.035355
781.173220,0.475000,0.073951
781.206712,0.250000,0.108972
781.240203,0.250000,0.134629
781.273694,0.025000,0.041458
781.307185,0.225000,0.041458
781.340676,0.300000,0.127475
781.374167,0.250000,0.090139
781.407657,0.500000,0.231840
781.441147,0.150000,0.114564
781.474636,0.200000,0.093541
781.508126,0.300000,0.209165
781.541615,0.450000,0.134629
781.575104,0.050000,0.025000
781.608593,0.225000,0.054486
781.642081,0.175000,0.163459
781.675569,-0.175000,0.064952
781.709057,0.100000,0.035355
781.742544,0.400000,0.183712
781.776032,-0.125000,0.054486
781.809519,0.325000,0.138632
781.843006,0.425000,0.198037
781.876492,0.175000,0.096014
781.909978,0.175000,0.041458
781.943464,0.125000,0.073951
781.976950,0.200000,0.122474
782.010435,0.975000,0.418890
782.043921,0.300000,0.117260
782.077406,0.275000,0.089268
782.110890,0.050000,0.025000
782.144375,0.125000,0.198037
782.177859,0.475000,0.178098
782.211343,0.100000,0.136931
782.244826,1.950000,0.381608
782.278309,2.425000,0.482668
782.311792,3.500000,0.295804
782.345275,3.866667,0.447679
782.378758,2.233333,0.320806
782.412240,0.825000,0.270127
782.445722,0.650000,0.227761
782.479204,0.325000,0.194856
782.512685,-0.000000,0.183712
782.546166,0.025000,0.081968
782.579647,0.100000,0.061237
782.613128,0.150000,0.082916
782.646608,-0.050000,0.043301
782.680088,0.150000,0.082916
782.713568,-0.075000,0.041458
782.747048,0.275000,0.054486
782.780527,-0.275000,0.041458
782.814006,-0.025000,0.054486
782.847485,0.075000,0.194856
782.880963,-0.100000,0.093541
782.914442,0.125000,0.129301
782.947920,-0.025000,0.081968
782.981397,0.000000,0.050000
783.014875,0.475000,0.073951
783.048352,0.225000,0.230149
783.081829,0.100000,0.061237
783.115306,0.275000,0.041458
783.148782,0.050000,0.075000
783.182258,-0.325000,0.041458
783.215734,0.375000,0.216145
783.249209,-0.125000,0.021651
783.282685,0.300000,0.117260
783.316160,0.050000,0.075000
783.349635,-0.000000,0.093541
783.383109,-0.275000,0.089268
783.416583,-0.025000,0.064952
783.450057,0.300000,0.297909
783.483531,-0.050000,0.075000
783.517004,0.425000,0.288043
783.550477,0.275000,0.155624
783.583950,0.325000,0.089268
783.617423,0.450000,0.178536
783.650895,0.300000,0.035355
783.684367,0.325000,0.198037
783.717839,-0.625000,0.064952
783.751311,-0.175000,0.064952
783.784782,0.000000,0.061237
783.818253,0.050000,0.043301
783.851724,0.275000,0.155624
783.885194,0.275000,0.054486
783.918665,-0.050000,0.108972
783.952134,0.175000,0.178098
783.985604,0.775000,0.255869
784.019074,1.025000,0.562778
784.052543,1.550000,0.486698
784.086012,1.975000,0.320887
784.119480,2.900000,0.390512
784.152948,5.700000,0.501248
784.186416,7.375000,1.109828
784.219884,2.875000,0.389511
784.253352,1.275000,0.194856
784.286819,0.600000,0.070711
784.320286,0.775000,0.270127
784.353753,0.275000,0.089268
784.387219,0.150000,0.147902
784.420685,0.150000,0.090139
784.454151,0.375000,0.386288
784.487617,-0.000000,0.093541
784.521082,0.275000,0.073951
784.554547,0.425000,0.143069
784.588012,0.150000,0.129904
784.621477,0.150000,0.055902
784.654941,0.175000,0.054486
784.688405,0.425000,0.147373
784.721869,0.025000,0.064952
784.755332,0.100000,0.050000
784.788795,0.125000,0.021651
784.822258,0.275000,0.102317
784.855721,0.250000,0.055902
784.889183,0.100000,0.122474
784.922646,0.275000,0.108253
784.956107,0.450000,0.286138
784.989569,-0.200000,0.086603
785.023030,-0.100000,0.093541
785.056491,-0.025000,0.102317
785.089952,0.100000,0.093541
785.123413,-0.025000,0.041458
785.156873,-0.225000,0.041458
785.190333,0.450000,0.125000
785.223792,0.425000,0.167239
785.257252,0.100000,0.145774
785.290711,0.075000,0.113880
785.324170,-0.100000,0.117260
785.357629,0.000000,0.061237
785.391087,0.300000,0.086603
785.424545,0.000000,0.035355
785.458003,0.025000,0.041458
785.491460,0.225000,0.073951
785.524918,0.175000,0.021651
785.558375,0.225000,0.174553
785.591831,0.100000,0.035355
785.625288,0.075000,0.054486
785.658744,0.350000,0.025000
785.692200,0.025000,0.159589
785.725655,0.300000,0.106066
785.759111,0.475000,0.296595
785.792566,0.250000,0.082916
785.826021,0.450000,0.283945
785.859475,0.075000,0.167239
785.892930,0.500000,0.127475
785.926384,2.050000,0.207666
785.959837,4.225000,0.883441
785.993291,7.150000,1.026219
786.026744,6.400000,1.070631
786.060197,3.750000,0.583631
786.093649,2.650000,0.825000
786.127102,0.600000,0.154110
786.160554,0.325000,0.227418
786.194006,0.275000,0.238157
786.227457,0.175000,0.054486
786.260909,0.525000,0.270127
786.294360,0.000000,0.050000
786.327810,-0.075000,0.089268
786.361261,0.175000,0.089268
786.394711,0.075000,0.089268
786.428161,0.050000,0.025000
786.461611,0.325000,0.073951
786.495060,0.150000,0.103078
786.528509,0.175000,0.184983
786.561958,0.150000,0.134629
786.595407,0.600000,0.437321
786.628855,0.300000,0.086603
786.662303,-0.125000,0.041458
786.695751,0.050000,0.025000
786.729198,0.375000,0.184983
786.762645,0.300000,0.183712
786.796092,0.000000,0.050000
786.829539,0.250000,0.114564
786.862985,-0.100000,0.061237
786.896431,0.175000,0.073951
786.929877,0.175000,0.073951
786.963323,0.250000,0.129904
786.996768,0.375000,0.096014
787.030213,0.775000,0.314990
787.063658,-0.075000,0.073951
787.097102,0.100000,0.127475
787.130547,0.075000,0.240767
787.163991,-0.100000,0.061237
787.197434,0.000000,0.127475
787.230878,0.700000,0.176777
787.264321,0.575000,0.384667
787.297764,-0.050000,0.075000
787.331206,0.525000,0.108253
787.364648,0.225000,0.064952
787.398090,0.500000,0.111803
787.431532,0.375000,0.119242
787.464974,0.275000,0.181573
787.498415,-0.275000,0.064952
787.531856,0.100000,0.061237
787.565296,-0.150000,0.075000
787.598737,0.200000,0.035355
787.632177,0.325000,0.073951
787.665617,0.100000,0.187083
787.699056,0.300000,0.035355
787.732496,0.100000,0.327872
787.765935,1.800000,0.448609
787.799373,5.500000,1.476059
787.832812,7.033333,0.389444
787.866250,11.500000,0.636396
787.899688,8.850000,1.334401
787.933126,3.500000,0.470372
787.966563,2.300000,0.732291
788.000000,0.650000,0.286138
788.033437,-0.050000,0.055902
788.066873,0.125000,0.073951
788.100310,0.425000,0.113880
788.133746,0.300000,0.061237
788.167181,0.325000,0.194856
788.200617,0.300000,0.035355
788.234052,0.275000,0.155624
788.267487,0.050000,0.114564
788.300921,0.150000,0.082916
788.334356,0.275000,0.073951
788.367790,0.275000,0.134048
788.401224,0.125000,0.064952
788.434657,-0.100000,0.136931
788.468090,0.100000,0.106066
788.501523,0.075000,0.064952
788.534956,0.075000,0.073951
788.568389,0.350000,0.160078
788.601821,0.100000,0.127475
788.635253,0.075000,0.073951
788.668684,0.100000,0.093541
788.702116,0.350000,0.246221
788.735547,-0.075000,0.124373
788.768977,0.225000,0.143069
788.802408,0.575000,0.304908
788.835838,0.225000,0.054486
788.869268,0.700000,0.262202
788.902698,0.125000,0.102317
788.936127,-0.000000,0.093541
788.969556,0.175000,0.108253
789.002985,0.200000,0.093541
789.036414,0.450000,0.192029
789.069842,0.050000,0.043301
789.103270,0.225000,0.119242
789.136698,0.125000,0.108253
789.170125,0.250000,0.129904
789.203552,0.575000,0.216145
789.236979,0.550000,0.103078
789.270406,0.175000,0.096014
789.303832,0.050000,0.025000
789.337258,0.075000,0.054486
789.370684,0.075000,0.096014
789.404110,0.100000,0.061237
789.437535,0.375000,0.096014
789.470960,0.125000,0.054486
789.504385,0.100000,0.093541
789.537809,0.425000,0.213234
789.571233,0.275000,0.210283
789.604657,1.050000,0.378319
789.638081,3.125000,0.722301
789.671504,7.750000,1.320275
789.704927,12.850000,0.549432
789.738350,15.225000,0.905797
789.771772,9.975000,0.592004
789.805195,2.133333,0.552645
789.838617,1.075000,0.449131
789.872038,1.025000,0.255869
789.905460,-0.375000,0.245904
789.938881,0.350000,0.134629
789.972302,0.275000,0.089268
790.005722,0.225000,0.064952
790.039143,0.125000,0.073951
790.072563,0.425000,0.143069
790.105982,0.200000,0.259808
790.139402,0.325000,0.102317
790.172821,-0.075000,0.089268
790.206240,0.925000,0.250936
790.239658,0.150000,0.055902
790.273077,0.225000,0.113880
790.306495,-0.000000,0.093541
790.339913,0.500000,0.136931
790.373330,0.150000,0.075000
790.406747,0.475000,0.213234
790.440164,0.275000,0.129301
790.473581,0.300000,0.154110
790.506997,-0.250000,0.043301
790.540414,0.000000,0.035355
790.573829,0.175000,0.129301
790.607245,0.075000,0.073951
790.640660,-0.075000,0.124373
790.674075,0.325000,0.204252
790.707490,0.150000,0.043301
790.740904,0.200000,0.061237
790.774319,0.225000,0.041458
790.807733,0.300000,0.145774
790.841146,0.000000,0.050000
790.874560,-0.075000,0.041458
790.907973,0.400000,0.106066
790.941385,0.600000,0.070711
790.974798,0.500000,0.136931
791.008210,0.575000,0.064952
791.041622,0.225000,0.281458
791.075034,0.175000,0.021651
791.108445,-0.100000,0.000000
791.141856,0.300000,0.117260
791.175267,0.050000,0.134629
791.208678,0.175000,0.113880
791.242088,0.125000,0.119242
791.275498,0.125000,0.096014
791.308908,0.425000,0.194856
791.342317,0.700000,0.434454
791.375726,0.525000,0.021651
791.409135,0.475000,0.230149
791.442544,0.075000,0.143069
791.475952,1.950000,0.275000
791.509360,7.575000,0.551560
791.542768,15.250000,1.245241
791.576176,21.566667,1.880935
791.609583,31.525000,1.497237
791.642990,18.950000,0.637868
791.676396,5.825000,0.717962
791.709803,1.725000,0.412879
791.743209,1.275000,0.337963
791.776615,0.275000,0.108253
791.810020,0.125000,0.054486
791.843425,0.350000,0.227761
791.876830,-0.500000,0.050000
791.910235,0.175000,0.108253
791.943640,0.250000,0.305164
791.977044,0.100000,0.093541
792.010448,0.175000,0.096014
792.043851,0.275000,0.155624
792.077254,0.125000,0.089268
792.110658,0.125000,0.041458
792.144060,0.350000,0.160078
792.177463,0.050000,0.055902
792.210865,-0.000000,0.093541
792.244267,0.550000,0.225000
792.277668,0.175000,0.113880
792.311070,0.325000,0.064952
792.344471,0.675000,0.326678
792.377872,0.350000,0.192029
792.411272,0.050000,0.055902
792.444672,0.150000,0.134629
792.478072,0.125000,0.073951
792.511472,0.525000,0.415895
792.544871,0.600000,0.250000
792.578271,0.025000,0.194856
792.611669,0.025000,0.096014
792.645068,0.400000,0.220794
792.678466,-0.250000,0.055902
792.711864,0.350000,0.251247
792.745262,0.025000,0.064952
792.778659,0.425000,0.318934
792.812056,0.050000,0.075000
792.845453,0.350000,0.108972
792.878850,0.150000,0.025000
792.912246,0.200000,0.070711
792.945642,0.150000,0.075000
792.979038,0.175000,0.081968
793.012433,0.375000,0.089268
793.045829,0.300000,0.093541
793.079223,-0.025000,0.054486
793.112618,0.000000,0.169558
793.146012,0.400000,0.111803
793.179406,0.125000,0.143069
793.212800,0.225000,0.181573
793.246194,0.025000,0.102317
793.279587,0.250000,0.082916
793.312980,0.700000,0.337268
793.346373,0.700000,0.136931
793.379765,4.025000,0.691353
793.413157,14.900000,0.482183
793.446549,29.175000,1.556187
793.479940,36.433333,1.827681
793.513332,29.100000,1.102837
793.546723,8.433333,0.496655
793.580113,2.175000,0.330483
793.613504,0.525000,0.147373
793.646894,0.150000,0.235850
793.680284,0.350000,0.129904
793.713673,0.125000,0.064952
793.747062,0.150000,0.108972
793.780451,0.250000,0.152069
793.813840,0.275000,0.096014
793.847228,0.275000,0.041458
793.880617,0.175000,0.210283
793.914004,0.300000,0.093541
793.947392,-0.025000,0.096014
793.980779,-0.200000,0.061237
794.014166,0.350000,0.248747
794.047553,0.325000,0.096014
794.080940,0.575000,0.108253
794.114326,0.125000,0.054486
794.147712,0.300000,0.122474
794.181097,0.125000,0.021651
794.214483,0.350000,0.043301
794.247868,0.375000,0.041458
794.281252,0.450000,0.332603
794.314637,-0.250000,0.082916
794.348021,0.400000,0.127475
794.381405,0.475000,0.219018
794.414788,0.900000,0.302076
794.448172,0.850000,0.422049
794.481555,-0.075000,0.096014
794.514938,0.025000,0.113880
794.548320,-0.100000,0.093541
794.581702,0.025000,0.089268
794.615084,0.450000,0.143614
794.648466,0.275000,0.163459
794.681847,0.400000,0.035355
794.715228,-0.400000,0.070711
794.748609,0.350000,0.160078
794.781990,0.075000,0.272431
794.815370,0.550000,0.147902
794.848750,0.125000,0.089268
794.882129,0.300000,0.226385
794.915509,0.400000,0.259808
794.948888,-0.250000,0.082916
794.982267,0.275000,0.119242
795.015645,-0.100000,0.093541
795.049023,0.250000,0.055902
795.082401,0.275000,0.240767
795.115779,0.275000,0.119242
795.149156,0.100000,0.061237
795.182534,1.050000,0.328824
795.215910,1.300000,0.106066
795.249287,3.775000,0.306951
795.282663,12.800000,0.530330
795.316039,30.766667,0.412816
795.349415,57.075000,3.027040
795.382790,59.875000,2.347439
795.416165,27.066667,1.248165
795.449540,6.566667,0.855375
795.482915,1.425000,0.433554
795.516289,0.625000,0.174553
795.549663,0.125000,0.174553
795.583037,0.125000,0.089268
795.616410,0.500000,0.122474
795.649783,-0.175000,0.096014
795.683156,0.225000,0.081968
795.716529,0.375000,0.021651
795.749901,0.275000,0.194856
795.783273,0.225000,0.096014
795.816645,-0.100000,0.150000
795.850016,0.075000,0.064952
795.883387,0.350000,0.125000
795.916758,0.125000,0.113880
795.950129,0.000000,0.079057
795.983499,0.175000,0.108253
796.016869,-0.000000,0.093541
796.050239,-0.025000,0.054486
796.083608,0.450000,0.134629
796.116977,-0.075000,0.081968
796.150346,-0.400000,0.093541
796.183714,0.075000,0.081968
796.217083,0.250000,0.075000
796.250451,-0.100000,0.035355
796.283818,0.400000,0.231840
796.317186,0.050000,0.025000
796.350553,0.425000,0.124373
796.383920,-0.175000,0.124373
796.417286,0.550000,0.163936
796.450653,0.175000,0.147373
796.484019,0.300000,0.122474
796.517384,0.350000,0.075000
796.550750,0.650000,0.279508
796.584115,0.350000,0.090139
796.617480,0.275000,0.096014
796.650844,0.275000,0.073951
796.684209,0.050000,0.108972
796.717573,-0.000000,0.093541
796.750936,0.500000,0.136931
796.784300,0.225000,0.124373
796.817663,0.250000,0.103078
796.851026,0.100000,0.093541
796.884388,0.100000,0.150000
796.917751,0.425000,0.113880
796.951113,0.075000,0.064952
796.984474,0.175000,0.089268
797.017836,0.375000,0.270127
797.051197,0.300000,0.150000
797.084558,0.150000,0.134629
797.117918,1.025000,0.283670
797.151279,4.766667,0.808033
797.184639,18.425000,2.127021
797.217998,37.425000,1.350174
797.251358,55.200000,1.810732
797.284717,62.333333,0.895358
797.318076,30.025000,2.222717
797.351434,6.675000,0.736864
797.384793,1.100000,0.035355
797.418151,0.775000,0.210283
797.451508,0.400000,0.187083
797.484866,0.325000,0.207289
797.518223,0.450000,0.178536
797.551580,0.075000,0.108253
797.584936,0.275000,0.194856
797.618292,0.125000,0.170935
797.651648,0.150000,0.090139
797.685004,0.225000,0.138632
797.718360,0.525000,0.174553
797.751715,0.575000,0.213234
797.785069,0.600000,0.234521
797.818424,0.375000,0.096014
797.851778,0.175000,0.089268
797.885132,-0.150000,0.182003
797.918486,0.675000,0.281458
797.951839,0.400000,0.293684
797.985192,0.525000,0.207289
798.018545,0.450000,0.129904
798.051898,0.400000,0.158114
798.085250,0.275000,0.224653
798.118602,-0.025000,0.064952
798.151954,0.475000,0.343466
798.185305,0.100000,0.093541
798.218656,0.225000,0.147373
798.252007,0.825000,0.073951
798.285357,0.900000,0.169558
798.318708,0.400000,0.276134
798.352057,0.675000,0.248433
798.385407,0.225000,0.041458
798.418756,0.075000,0.138632
798.452106,0.400000,0.093541
798.485454,0.100000,0.117260
798.518803,0.675000,0.073951
798.552151,0.200000,0.122474
798.585499,0.550000,0.235850
798.618847,0.025000,0.096014
798.652194,0.325000,0.216145
798.685541,0.400000,0.106066
798.718888,0.275000,0.073951
798.752234,0.050000,0.055902
798.785580,0.775000,0.224653
798.818926,0.100000,0.061237
798.852272,0.275000,0.113880
798.885617,-0.150000,0.090139
798.918962,0.225000,0.073951
798.952307,0.675000,0.270127
798.985651,0.650000,0.114564
799.018996,1.800000,0.180278
799.052339,4.850000,0.354436
799.085683,18.233333,0.054006
799.119026,54.375000,1.151290
799.152369,90.750000,4.059018
799.185712,84.833333,1.315453
799.219054,42.033333,2.599599
799.252397,9.566667,0.867708
799.285738,3.350000,0.442295
799.319080,0.600000,0.262202
799.352421,0.400000,0.070711
799.385762,0.500000,0.327872
799.419103,0.675000,0.412879
799.452443,0.425000,0.198037
799.485783,0.400000,0.209165
799.519123,0.450000,0.201556
799.552463,0.125000,0.147373
799.585802,0.300000,0.176777
799.619141,1.175000,0.378112
799.652480,-0.125000,0.096014
799.685818,0.025000,0.089268
799.719156,0.375000,0.096014
799.752494,0.575000,0.138632
799.785831,0.200000,0.050000
799.819169,0.600000,0.266927
799.852506,0.575000,0.300780
799.885842,-0.025000,0.041458
799.919179,0.575000,0.240767
799.952515,1.350000,0.396074
799.985850,0.425000,0.064952
800.019186,0.125000,0.073951
800.052521,0.675000,0.219018
800.085856,0.350000,0.207666
800.119191,0.850000,0.288314
800.152525,0.800000,0.257391
800.185859,0.875000,0.298695
800.219193,0.200000,0.127475
800.252526,0.700000,0.169558
800.285859,0.550000,0.143614
800.319192,0.450000,0.213600
800.352525,0.400000,0.050000
800.385857,0.625000,0.330483
800.419189,0.625000,0.113880
800.452521,0.400000,0.127475
800.485852,0.575000,0.155624
800.519183,0.225000,0.102317
800.552514,0.350000,0.201556
800.585844,-0.375000,0.240767
800.619175,0.450000,0.125000
800.652505,0.500000,0.154110
800.685834,1.100000,0.247487
800.719164,1.125000,0.570499
800.752493,0.325000,0.174553
800.785821,0.800000,0.293684
800.819150,0.350000,0.216506
800.852478,0.525000,0.288043
800.885806,0.500000,0.111803
800.919134,1.425000,0.318934
800.952461,5.225000,0.434993
800.985788,28.125000,1.680913
801.019115,82.666667,1.764346
801.052441,168.466667,1.697547
801.085767,233.850000,5.386383
801.119093,154.725000,3.803678
801.152419,39.825000,2.660445
801.185744,8.925000,1.060881
801.219069,2.225000,0.478768
801.252394,0.425000,0.219018
801.285718,0.875000,0.424816
801.319042,1.200000,0.314245
801.352366,0.300000,0.229129
801.385690,0.400000,0.086603
801.419013,-0.075000,0.216145
801.452336,1.250000,0.536773
801.485658,0.000000,0.183712
801.518981,0.575000,0.326678
801.552303,0.325000,0.089268
801.585625,0.325000,0.064952
801.618946,0.725000,0.194856
801.652267,0.025000,0.124373
801.685588,0.550000,0.294746
801.718909,0.225000,0.081968
801.752229,0.650000,0.201556
801.785549,0.650000,0.277263
801.818869,0.550000,0.258602
801.852188,0.150000,0.178536
801.885507,0.500000,0.247487
801.918826,0.650000,0.175000
801.952145,0.425000,0.174553
801.985463,0.400000,0.220794
802.018781,0.500000,0.183712
802.052099,0.525000,0.096014
802.085416,0.625000,0.201168
802.118733,0.725000,0.184983
802.152050,0.400000,0.061237
802.185366,0.075000,0.096014
802.218683,0.550000,0.311247
802.251999,0.550000,0.075000
802.285314,0.125000,0.113880
802.318630,0.675000,0.276981
802.351945,0.175000,0.041458
802.385259,0.450000,0.103078
802.418574,0.775000,0.213234
802.451888,0.700000,0.111803
802.485202,0.300000,0.061237
802.518515,0.150000,0.055902
802.551829,0.250000,0.090139
802.585142,0.900000,0.158114
802.618454,0.625000,0.357727
802.651767,1.100000,0.329773
802.685079,-0.325000,0.181573
802.718391,0.300000,0.111803
802.751702,0.800000,0.304138
802.785013,0.775000,0.124373
802.818324,1.000000,0.398434
802.851635,2.050000,0.432290
802.884945,13.275000,1.402398
802.918255,59.850000,2.200710
802.951565,161.925000,6.285735
802.984874,250.900000,7.065674
803.018184,298.375000,8.159609
803.051492,126.733333,2.932860
803.084801,26.100000,1.539886
803.118109,4.625000,0.341641
803.151417,0.325000,0.155624
803.184725,0.575000,0.129301
803.218032,0.625000,0.369755
803.251339,0.550000,0.043301
803.284646,0.550000,0.160078
803.317953,0.550000,0.275000
803.351259,0.075000,0.041458
803.384565,0.000000,0.162019
803.417870,0.550000,0.283945
803.451176,0.450000,0.082916
803.484481,0.525000,0.245904
803.517786,0.650000,0.277263
803.551090,0.425000,0.124373
803.584394,0.125000,0.178098
803.617698,0.500000,0.145774
803.651002,0.325000,0.081968
803.684305,0.150000,0.055902
803.717608,0.525000,0.089268
803.750910,0.875000,0.276981
803.784213,1.325000,0.408312
803.817515,1.725000,0.469541
803.850817,0.725000,0.361205
803.884118,1.450000,0.566238
803.917419,0.775000,0.089268
803.950720,1.050000,0.192029
803.984021,1.025000,0.394295
804.017321,0.725000,0.216145
804.050621,0.550000,0.147902
804.083921,1.025000,0.198037
804.117220,1.150000,0.286138
804.150519,0.700000,0.162019
804.183818,1.025000,0.064952
804.217117,0.325000,0.194856
804.250415,0.575000,0.124373
804.283713,0.950000,0.175000
804.317011,0.350000,0.182003
804.350308,0.525000,0.081968
804.383605,0.700000,0.262202
804.416902,0.450000,0.055902
804.450198,0.675000,0.163459
804.483494,0.950000,0.204634
804.516790,0.900000,0.362284
804.550086,0.225000,0.064952
804.583381,0.325000,0.163459
804.616676,0.450000,0.114564
804.649971,1.050000,0.134629
804.683265,1.575000,0.402143
804.716559,1.125000,0.486538
804.749853,1.325000,0.221853
804.783146,1.950000,0.108972
804.816440,12.800000,1.474364
804.849732,69.633333,0.869147
804.883025,243.550000,2.407670
804.916317,349.850000,5.751685
804.949609,364.500000,10.222585
804.982901,146.333333,5.091210
805.016192,26.100000,0.767300
805.049484,4.633333,0.250832
805.082774,0.875000,0.174553
805.116065,0.625000,0.102317
805.149355,0.600000,0.257391
805.182645,0.175000,0.129301
805.215935,0.475000,0.102317
805.249224,0.350000,0.103078
805.282513,0.450000,0.454835
805.315802,0.950000,0.378319
805.349090,0.475000,0.143069
805.382378,0.775000,0.313000
805.415666,1.325000,0.559436
805.448954,1.200000,0.527968
805.482241,0.025000,0.073951
805.515528,0.400000,0.169558
805.548815,0.450000,0.216506
805.582101,0.400000,0.035355
805.615387,1.000000,0.325960
805.648673,0.550000,0.167705
805.681958,0.275000,0.064952
805.715243,1.050000,0.256174
805.748528,1.500000,0.322102
805.781813,0.750000,0.125000
805.815097,1.225000,0.243349
805.848381,0.400000,0.176777
805.881665,1.025000,0.267804
805.914948,1.050000,0.309233
805.948231,0.650000,0.326917
805.981514,0.925000,0.288043
806.014796,1.325000,0.374792
806.048079,0.725000,0.102317
806.081360,0.600000,0.244949
806.114642,0.875000,0.163459
806.147923,0.875000,0.451906
806.181204,0.575000,0.041458
806.214485,0.025000,0.064952
806.247765,0.700000,0.289396
806.281046,1.075000,0.343466
806.314325,0.850000,0.225000
806.347605,0.525000,0.181573
806.380884,0.700000,0.460977
806.414163,1.100000,0.215058
806.447441,0.725000,0.288043
806.480720,1.050000,0.143614
806.513998,1.200000,0.478278
806.547275,1.300000,0.086603
806.580553,1.475000,0.354216
806.613830,0.725000,0.178098
806.647107,1.100000,0.203101
806.680383,1.900000,0.231840
806.713659,3.250000,0.653357
806.746935,10.525000,1.296811
806.780211,75.600000,3.922212
806.813486,292.933333,4.770264
806.846761,573.575000,6.987165
806.880036,696.225000,10.879819
806.913310,423.650000,10.216011
806.946584,82.700000,2.632727
806.979858,15.225000,1.111516
807.013132,2.800000,0.508675
807.046405,1.175000,0.230149
807.079678,0.800000,0.035355
807.112951,1.150000,0.251247
807.146223,0.275000,0.178098
807.179495,0.725000,0.216145
807.212767,-0.250000,0.125000
807.246038,0.700000,0.079057
807.279309,0.325000,0.178098
807.312580,0.425000,0.207289
807.345850,0.950000,0.364863
807.379121,0.550000,0.125000
807.412390,0.650000,0.103078
807.445660,0.500000,0.117260
807.478929,1.075000,0.276981
807.512198,0.825000,0.348882
807.545467,0.400000,0.122474
807.578735,0.325000,0.081968
807.612004,-0.075000,0.198037
807.645271,0.750000,0.134629
807.678539,0.225000,0.232849
807.711806,0.733333,0.054006
807.745073,0.550000,0.238485
807.778340,0.550000,0.134629
807.811606,1.100000,0.183712
807.844872,2.000000,0.212132
807.878138,1.325000,0.324760
807.911403,0.550000,0.207666
807.944668,1.700000,0.693722
807.977933,0.875000,0.143069
808.011197,0.475000,0.081968
808.044462,0.775000,0.245904
808.077725,0.450000,0.182003
808.110989,1.500000,0.127475
808.144252,1.800000,0.206155
808.177515,1.000000,0.079057
808.210778,0.400000,0.183712
808.244040,1.400000,0.302076
808.277302,0.375000,0.143069
808.310564,1.050000,0.082916
808.343826,1.450000,0.283945
808.377087,0.950000,0.241091
808.410348,1.125000,0.174553
808.443608,1.075000,0.230149
808.476869,1.550000,0.628987
808.510129,1.650000,0.325000
808.543388,1.300000,0.183712
808.576648,1.825000,0.155624
808.609907,1.575000,0.240767
808.643165,3.625000,0.601431
808.676424,5.850000,0.632949
808.709682,37.466667,0.511534
808.742940,243.550000,3.180114
808.776197,714.233333,6.910982
808.809455,962.425000,5.164346
808.842712,895.650000,7.675000
808.875968,304.025000,4.336671
808.909225,50.200000,2.766541
808.942481,8.933333,1.236089
808.975736,2.875000,0.625874
809.008992,1.600000,0.475657
809.042247,1.225000,0.270127
809.075502,1.275000,0.253414
809.108756,-0.200000,0.136931
809.142011,0.950000,0.279508
809.175265,0.650000,0.188746
809.208518,0.825000,0.151554
809.241772,1.325000,0.524851
809.275025,0.800000,0.079057
809.308277,0.750000,0.309233
809.341530,1.050000,0.227761
809.374782,1.575000,0.174553
809.408034,1.275000,0.138632
809.441285,1.475000,0.021651
809.474536,0.700000,0.162019
809.507787,0.950000,0.167705
809.541038,0.900000,0.325960
809.574288,1.075000,0.174553
809.607538,1.125000,0.434993
809.640788,1.400000,0.496236
809.674037,1.600000,0.237171
809.707286,1.575000,0.408312
809.740535,2.275000,0.502960
809.773783,2.425000,0.474835
809.807032,3.000000,0.566789
809.840279,2.900000,0.348210
809.873527,1.700000,0.486056
809.906774,1.525000,0.511585
809.940021,1.475000,0.102317
809.973268,2.025000,0.276981
810.006514,2.200000,0.269258
810.039760,1.975000,0.651321
810.073006,1.075000,0.102317
810.106251,1.200000,0.250000
810.139497,2.125000,0.310996
810.172741,2.100000,0.106066
810.205986,1.625000,0.167239
810.239230,1.350000,0.414578
810.272474,2.600000,0.150000
810.305718,3.000000,0.622495
810.338961,2.250000,0.238485
810.372204,3.875000,0.635782
810.405447,3.400000,0.127475
810.438689,3.050000,0.450694
810.471931,2.800000,0.127475
810.505173,4.275000,0.783721
810.538414,5.350000,0.530919
810.571656,5.300000,0.784219
810.604897,8.050000,0.376663
810.638137,16.250000,0.798827
810.671377,92.650000,2.366036
810.704617,565.625000,7.939016
810.737857,1633.850000,12.708880
810.771096,1842.650000,20.438001
810.804335,1511.050000,8.799822
810.837574,481.533333,2.201515
810.870813,66.900000,0.935414
810.904051,11.600000,0.961119
810.937288,2.575000,0.216145
810.970526,2.875000,0.796379
811.003763,1.350000,0.880696
811.037000,0.850000,0.265754
811.070237,0.750000,0.275000
811.103473,0.166667,0.020412
811.136709,-0.025000,0.167239
811.169945,1.025000,0.446339
811.203180,0.200000,0.169558
811.236415,0.475000,0.260708
811.269650,0.425000,0.400586
811.302884,0.875000,0.113880
811.336119,0.475000,0.238157
811.369352,1.675000,0.258300
811.402586,2.450000,0.550568
811.435819,2.200000,0.811634
811.469052,2.666667,0.394229
811.502285,3.333333,1.630312
811.535517,3.275000,0.538952
811.568749,2.225000,0.779724
811.601981,2.750000,0.606733
811.635212,0.800000,0.287228
811.668443,1.275000,0.395877
811.701674,1.450000,0.596343
811.734905,1.333333,0.113652
811.768135,2.350000,0.294746
811.801365,0.700000,0.231840
811.834594,0.900000,0.169558
811.867824,0.500000,0.443001
811.901053,0.825000,0.354216
811.934281,-0.125000,0.155624
811.967510,0.800000,0.504975
812.000738,0.925000,0.549289
812.033965,1.550000,0.389711
812.067193,0.200000,0.215058
812.100420,1.075000,0.279229
812.133647,0.650000,0.301040
812.166873,-0.750000,0.055902
812.200099,0.775000,0.167239
812.233325,1.225000,0.328586
812.266551,0.375000,0.230149
812.299776,0.925000,0.345281
812.333001,0.675000,0.102317
812.366226,1.200000,0.377492
812.399450,1.000000,0.425735
812.432674,0.350000,0.129904
812.465898,0.000000,0.086603
812.499121,1.450000,0.201556
812.532345,0.700000,0.220794
812.565567,1.800000,0.532682
812.598790,3.350000,0.503115
812.632012,18.633333,1.035817
812.665234,142.675000,2.159391
812.698456,541.975000,6.690046
812.731677,836.225000,7.147148
812.764898,717.900000,7.093747
812.798119,273.275000,2.228614
812.831339,33.433333,1.980320
812.864559,7.866667,1.089916
812.897779,1.375000,0.359470
812.930998,0.850000,0.286138
812.964217,0.575000,0.181573
812.997436,0.125000,0.108253
813.030655,0.225000,0.174553
813.063873,0.425000,0.292350
813.097091,0.000000,0.000000
813.130308,-0.225000,0.170935
813.163526,0.425000,0.184983
813.196743,0.225000,0.129301
813.229959,0.175000,0.163459
813.263176,0.600000,0.348210
813.296392,0.175000,0.386288
813.329607,0.450000,0.152069
813.362823,0.400000,0.162019
813.396038,0.750000,0.268095
813.429253,-0.050000,0.134629
813.462467,0.425000,0.178098
813.495682,0.325000,0.073951
813.528895,0.475000,0.147373
813.562109,0.075000,0.102317
813.595322,0.400000,0.353553
813.628535,0.300000,0.165831
813.661748,0.450000,0.238485
813.694960,0.250000,0.143614
813.728172,-0.100000,0.086603
813.761384,0.125000,0.267804
813.794596,-0.075000,0.041458
813.827807,-0.400000,0.145774
813.861017,0.275000,0.124373
813.894228,0.225000,0.054486
813.927438,0.600000,0.242384
813.960648,1.175000,0.240767
813.993858,0.025000,0.124373
814.027067,0.375000,0.129301
814.060276,0.375000,0.129301
814.093485,0.350000,0.248747
814.126693,0.175000,0.216145
814.159901,0.100000,0.162019
814.193109,-0.250000,0.160078
814.226316,1.225000,0.191621
814.259523,0.450000,0.152069
814.292730,0.625000,0.288043
814.325936,0.675000,0.167239
814.359143,0.450000,0.283945
814.392348,0.950000,0.520216
814.425554,0.275000,0.159589
814.458759,0.300000,0.231840
814.491964,-0.075000,0.129301
814.525169,0.450000,0.175000
814.558373,0.100000,0.237171
814.591577,0.075000,0.138632
814.624781,0.500000,0.220794
814.657984,1.050000,0.188746
