#{
#    "background_file": "Backgrounds\\\\bg_787.999nm_16bin_197st_244en_10.0s_110g_4x_1_seq.txt",
#    "ccd_image_settings": [
#        1,
#        16,
#        1,
#        1600,
#        197,
#        244
#    ],
#    "ccd_temperature": "-88",
#    "cdRatios": {
#        "mean": 0.9302291419307059,
#        "std": 0.005632448623437874
#    },
#    "center_lambda": 788.0,
#    "comments": "",
#    "dark_region": 0.28441749510787395,
#    "date": "11/17/19 15:00:35PM",
#    "eff_field": 1.5,
#    "exposure": 10.0,
#    "fel_lambda": "15.0",
#    "fel_pol": "H",
#    "fel_pulses": 40,
#    "fel_pyro_cal": "0.017",
#    "fel_reprate": "1.07",
#    "fel_transmission": "1.0",
#    "fel_transmission_fits": {
#        "A": 1.0,
#        "C": 0.0,
#        "Mu": 0.0
#    },
#    "fieldInt": {
#        "mean": 9407.106022727272,
#        "std": 429.75859620971397
#    },
#    "fieldStrength": {
#        "mean": 44.48852272727273,
#        "std": 1.0142442786078925
#    },
#    "fpTime": {
#        "mean": 1.1190150713500753,
#        "std": 0.05943820615361281
#    },
#    "gain": 110,
#    "grating": 3,
#    "images_in_sequence": [
#        "hsg_SpotD_crystal16_a00_HAna233.txt",
#        "hsg_SpotD_crystal16_a00_HAna234.txt",
#        "hsg_SpotD_crystal16_a00_HAna235.txt",
#        "hsg_SpotD_crystal16_a00_HAna236.txt"
#    ],
#    "nir_lambda": "820.9918",
#    "nir_pola": "00",
#    "nir_polg": "0",
#    "nir_power": "100.0",
#    "pulseEnergies": {
#        "mean": 2.028818181818182,
#        "std": 0.10212444467428966
#    },
#    "pyroVoltage": {
#        "mean": 0.12834931035629255,
#        "std": 0.007088958233840041
#    },
#    "rotatorAngle": 202.4999963378817,
#    "sample_Temp": "58",
#    "sample_name": "L001218.C3",
#    "series": "SpotD_16_00",
#    "slits": "60",
#    "spec_step": "",
#    "window_trans": 0.92,
#    "y_max": 2,
#    "y_min": 1
#}
#
#
#
#
#
#
#
#
#
#
#
#
#
#
#
#
#
#
#
#
#
#
#
#
#
#
Wavelength,Signal,error
nm,arb. u.,arb.u.
Wavelength,SpotD_16_00,error
761.200217,0.050000,0.129904
761.233859,-0.125000,0.041458
761.267500,0.300000,0.176777
761.301141,0.075000,0.324760
761.334781,0.175000,0.167239
761.368422,-0.250000,0.025000
761.402062,0.250000,0.055902
761.435702,-0.025000,0.124373
761.469342,-0.025000,0.073951
761.502981,0.225000,0.163459
761.536620,0.200000,0.203101
761.570259,-0.100000,0.079057
761.603898,-0.125000,0.054486
761.637537,-0.225000,0.041458
761.671175,0.050000,0.160078
761.704813,0.075000,0.064952
761.738451,0.250000,0.134629
761.772088,-0.050000,0.025000
761.805726,-0.325000,0.073951
761.839363,-0.100000,0.111803
761.873000,-0.100000,0.061237
761.906636,-0.150000,0.025000
761.940273,0.250000,0.167705
761.973909,0.050000,0.043301
762.007545,0.325000,0.167239
762.041180,-0.275000,0.096014
762.074816,-0.050000,0.055902
762.108451,0.125000,0.147373
762.142086,0.400000,0.145774
762.175720,0.000000,0.035355
762.209355,0.250000,0.275000
762.242989,0.375000,0.108253
762.276623,0.200000,0.122474
762.310257,0.050000,0.082916
762.343890,-0.175000,0.041458
762.377524,0.025000,0.134048
762.411157,0.025000,0.108253
762.444789,0.300000,0.183712
762.478422,0.100000,0.050000
762.512054,0.100000,0.035355
762.545686,0.300000,0.196850
762.579318,-0.050000,0.075000
762.612950,-0.025000,0.054486
762.646581,0.150000,0.160078
762.680212,0.325000,0.198037
762.713843,0.250000,0.125000
762.747474,0.325000,0.108253
762.781104,0.225000,0.281458
762.814734,0.100000,0.329773
762.848364,-0.175000,0.054486
762.881994,0.050000,0.235850
762.915623,0.225000,0.108253
762.949252,-0.150000,0.108972
762.982881,0.175000,0.073951
763.016510,0.050000,0.147902
763.050139,-0.125000,0.041458
763.083767,-0.100000,0.093541
763.117395,0.075000,0.021651
763.151023,0.250000,0.134629
763.184650,0.125000,0.081968
763.218277,-0.100000,0.106066
763.251904,0.100000,0.220794
763.285531,0.000000,0.086603
763.319158,-0.075000,0.064952
763.352784,-0.125000,0.089268
763.386410,0.200000,0.154110
763.420036,0.525000,0.260708
763.453661,1.375000,0.674884
763.487287,-0.666667,0.054006
763.520912,-0.900000,0.187083
763.554537,0.200000,0.150000
763.588161,-0.150000,0.134629
763.621786,-0.025000,0.163459
763.655410,0.075000,0.089268
763.689034,-0.325000,0.021651
763.722657,0.050000,0.103078
763.756281,0.175000,0.054486
763.789904,0.350000,0.317214
763.823527,-0.100000,0.086603
763.857150,0.225000,0.163459
763.890772,-0.200000,0.061237
763.924394,-0.075000,0.021651
763.958016,0.150000,0.103078
763.991638,0.200000,0.150000
764.025260,0.300000,0.293684
764.058881,-0.000000,0.117260
764.092502,-0.325000,0.096014
764.126123,0.075000,0.089268
764.159743,0.400000,0.353553
764.193363,-0.050000,0.055902
764.226983,0.350000,0.246221
764.260603,0.250000,0.108972
764.294223,-0.225000,0.021651
764.327842,0.150000,0.114564
764.361461,0.100000,0.117260
764.395080,0.400000,0.203101
764.428699,0.025000,0.064952
764.462317,0.300000,0.231840
764.495935,-0.150000,0.055902
764.529553,-0.125000,0.129301
764.563170,0.100000,0.061237
764.596788,0.600000,0.406202
764.630405,-0.175000,0.041458
764.664022,0.125000,0.314990
764.697638,0.375000,0.155624
764.731255,-0.075000,0.119242
764.764871,-0.025000,0.108253
764.798487,-0.125000,0.096014
764.832103,0.250000,0.195256
764.865718,0.050000,0.043301
764.899333,0.050000,0.134629
764.932948,-0.000000,0.093541
764.966563,0.050000,0.090139
765.000177,0.100000,0.117260
765.033792,0.100000,0.061237
765.067406,0.400000,0.266927
765.101019,0.350000,0.160078
765.134633,-0.250000,0.075000
765.168246,0.500000,0.351781
765.201859,0.175000,0.119242
765.235472,0.350000,0.195256
765.269084,0.200000,0.079057
765.302697,-0.225000,0.041458
765.336309,0.150000,0.103078
765.369920,0.075000,0.041458
765.403532,0.175000,0.184983
765.437143,0.100000,0.145774
765.470754,0.400000,0.206155
765.504365,0.250000,0.235850
765.537976,-0.025000,0.108253
765.571586,0.000000,0.154110
765.605196,-0.250000,0.055902
765.638806,0.700000,0.434454
765.672416,0.450000,0.334477
765.706025,0.075000,0.073951
765.739634,0.225000,0.283670
765.773243,0.200000,0.079057
765.806851,-0.175000,0.073951
765.840460,0.175000,0.081968
765.874068,0.675000,0.304908
765.907676,-0.125000,0.188331
765.941284,-0.025000,0.163459
765.974891,0.025000,0.081968
766.008498,0.125000,0.081968
766.042105,-0.025000,0.021651
766.075712,-0.050000,0.235850
766.109318,-0.325000,0.041458
766.142924,0.100000,0.176777
766.176530,-0.225000,0.089268
766.210136,0.475000,0.437857
766.243741,0.175000,0.054486
766.277347,-0.175000,0.124373
766.310951,-0.100000,0.079057
766.344556,0.175000,0.108253
766.378161,0.275000,0.155624
766.411765,-0.050000,0.178536
766.445369,0.125000,0.227418
766.478973,-0.225000,0.089268
766.512576,-0.150000,0.055902
766.546179,0.275000,0.227418
766.579782,-0.025000,0.021651
766.613385,0.100000,0.035355
766.646988,0.050000,0.332603
766.680590,0.075000,0.119242
766.714192,-0.100000,0.000000
766.747794,0.150000,0.167705
766.781395,0.325000,0.143069
766.814996,-0.350000,0.055902
766.848597,-0.000000,0.117260
766.882198,0.200000,0.111803
766.915799,-0.025000,0.041458
766.949399,0.175000,0.073951
766.982999,0.025000,0.073951
767.016599,-0.300000,0.061237
767.050198,0.000000,0.035355
767.083798,0.225000,0.089268
767.117397,0.325000,0.147373
767.150996,-0.125000,0.064952
767.184594,-0.375000,0.041458
767.218193,-0.150000,0.055902
767.251791,-0.075000,0.064952
767.285389,-0.500000,0.035355
767.318986,0.075000,0.155624
767.352583,0.275000,0.188331
767.386181,0.075000,0.073951
767.419777,-0.050000,0.075000
767.453374,0.300000,0.061237
767.486970,-0.400000,0.070711
767.520567,0.225000,0.155624
767.554162,-0.050000,0.055902
767.587758,0.300000,0.093541
767.621353,0.175000,0.041458
767.654949,0.400000,0.353553
767.688543,0.075000,0.089268
767.722138,-0.075000,0.021651
767.755732,0.325000,0.108253
767.789327,0.075000,0.064952
767.822921,-0.050000,0.251247
767.856514,-0.100000,0.127475
767.890108,0.150000,0.188746
767.923701,0.175000,0.155624
767.957294,0.250000,0.108972
767.990886,0.400000,0.183712
768.024479,-0.100000,0.035355
768.058071,0.150000,0.114564
768.091663,-0.325000,0.064952
768.125255,0.025000,0.096014
768.158846,0.100000,0.093541
768.192437,-0.225000,0.073951
768.226028,0.075000,0.073951
768.259619,0.100000,0.079057
768.293209,0.225000,0.258300
768.326799,0.150000,0.075000
768.360389,0.075000,0.155624
768.393979,-0.125000,0.096014
768.427568,-0.050000,0.025000
768.461158,0.000000,0.061237
768.494747,-0.100000,0.093541
768.528335,0.325000,0.129301
768.561924,0.350000,0.167705
768.595512,0.200000,0.209165
768.629100,0.200000,0.000000
768.662688,0.050000,0.043301
768.696275,-0.100000,0.035355
768.729862,0.175000,0.119242
768.763449,0.100000,0.127475
768.797036,-0.175000,0.041458
768.830623,0.500000,0.234521
768.864209,0.175000,0.054486
768.897795,0.000000,0.070711
768.931381,0.600000,0.492443
768.964966,-0.350000,0.055902
768.998551,0.250000,0.103078
769.032136,-0.125000,0.089268
769.065721,0.175000,0.096014
769.099305,0.200000,0.266927
769.132890,-0.025000,0.081968
769.166474,0.025000,0.054486
769.200057,0.125000,0.113880
769.233641,0.125000,0.096014
769.267224,0.275000,0.240767
769.300807,-0.325000,0.041458
769.334390,0.075000,0.096014
769.367972,0.125000,0.147373
769.401555,0.025000,0.113880
769.435137,-0.300000,0.035355
769.468718,0.175000,0.102317
769.502300,-0.150000,0.043301
769.535881,-0.050000,0.114564
769.569462,-0.250000,0.075000
769.603043,-0.025000,0.073951
769.636623,0.250000,0.103078
769.670204,0.250000,0.248747
769.703784,0.225000,0.138632
769.737364,0.100000,0.035355
769.770943,0.075000,0.041458
769.804522,-0.075000,0.041458
769.838101,-0.275000,0.073951
769.871680,0.050000,0.192029
769.905259,-0.425000,0.124373
769.938837,0.175000,0.113880
769.972415,0.050000,0.114564
770.005993,0.250000,0.225000
770.039570,0.050000,0.192029
770.073147,0.000000,0.061237
770.106724,-0.025000,0.102317
770.140301,0.625000,0.213234
770.173878,0.125000,0.054486
770.207454,0.100000,0.276134
770.241030,-0.075000,0.054486
770.274606,0.075000,0.041458
770.308181,0.375000,0.216145
770.341757,0.100000,0.127475
770.375332,0.000000,0.035355
770.408906,0.225000,0.138632
770.442481,-0.250000,0.075000
770.476055,0.025000,0.138632
770.509629,0.450000,0.361421
770.543203,0.050000,0.075000
770.576776,0.125000,0.102317
770.610350,0.225000,0.054486
770.643923,-0.025000,0.081968
770.677495,0.150000,0.134629
770.711068,0.150000,0.055902
770.744640,-0.025000,0.089268
770.778212,0.175000,0.108253
770.811784,-0.075000,0.073951
770.845356,0.225000,0.089268
770.878927,0.300000,0.050000
770.912498,0.000000,0.000000
770.946069,0.075000,0.188331
770.979639,0.025000,0.089268
771.013209,0.125000,0.064952
771.046779,-0.350000,0.163936
771.080349,-0.225000,0.041458
771.113919,0.050000,0.075000
771.147488,0.100000,0.127475
771.181057,0.325000,0.113880
771.214626,0.100000,0.122474
771.248194,0.150000,0.225000
771.281762,0.125000,0.073951
771.315330,0.025000,0.138632
771.348898,0.450000,0.305164
771.382465,-0.150000,0.248747
771.416033,-0.075000,0.041458
771.449600,0.600000,0.259808
771.483166,1.125000,0.276981
771.516733,0.300000,0.093541
771.550299,0.325000,0.373120
771.583865,0.125000,0.054486
771.617431,-0.125000,0.041458
771.650996,0.200000,0.150000
771.684562,-0.050000,0.075000
771.718127,0.250000,0.207666
771.751691,0.300000,0.176777
771.785256,-0.025000,0.134048
771.818820,-0.225000,0.054486
771.852384,0.100000,0.106066
771.885948,-0.025000,0.064952
771.919511,0.525000,0.352447
771.953074,0.275000,0.089268
771.986637,0.150000,0.043301
772.020200,0.400000,0.136931
772.053762,0.325000,0.167239
772.087325,0.050000,0.082916
772.120887,0.075000,0.073951
772.154448,0.125000,0.064952
772.188010,0.175000,0.124373
772.221571,-0.075000,0.021651
772.255132,0.475000,0.213234
772.288692,0.075000,0.213234
772.322253,-0.150000,0.125000
772.355813,0.050000,0.160078
772.389373,-0.150000,0.125000
772.422933,-0.225000,0.108253
772.456492,-0.050000,0.090139
772.490051,0.175000,0.147373
772.523610,0.100000,0.079057
772.557169,0.250000,0.219374
772.590727,0.050000,0.125000
772.624285,0.025000,0.041458
772.657843,0.100000,0.061237
772.691401,-0.475000,0.081968
772.724958,-0.050000,0.082916
772.758515,0.025000,0.081968
772.792072,0.425000,0.227418
772.825629,0.150000,0.103078
772.859185,0.050000,0.103078
772.892741,-0.200000,0.070711
772.926297,0.100000,0.093541
772.959853,0.275000,0.167239
772.993408,-0.700000,0.127475
773.026963,-0.025000,0.129301
773.060518,0.075000,0.124373
773.094073,-0.100000,0.086603
773.127627,0.650000,0.163936
773.161181,0.650000,0.334477
773.194735,0.550000,0.160078
773.228289,0.475000,0.415895
773.261842,1.875000,0.690448
773.295395,0.725000,0.134048
773.328948,0.150000,0.090139
773.362500,0.275000,0.021651
773.396053,0.075000,0.298695
773.429605,0.300000,0.173205
773.463157,0.175000,0.089268
773.496708,0.100000,0.136931
773.530260,-0.275000,0.021651
773.563811,-0.250000,0.055902
773.597361,0.075000,0.134048
773.630912,0.500000,0.215058
773.664462,0.275000,0.096014
773.698012,0.250000,0.422049
773.731562,0.125000,0.041458
773.765111,-0.025000,0.064952
773.798661,-0.075000,0.041458
773.832210,0.125000,0.147373
773.865758,0.025000,0.021651
773.899307,0.200000,0.122474
773.932855,-0.025000,0.096014
773.966403,-0.125000,0.054486
773.999951,-0.025000,0.021651
774.033498,0.375000,0.308980
774.067046,0.125000,0.064952
774.100593,0.275000,0.108253
774.134139,0.150000,0.043301
774.167686,0.125000,0.253414
774.201232,0.300000,0.050000
774.234778,0.100000,0.035355
774.268324,-0.025000,0.073951
774.301869,0.025000,0.108253
774.335414,-0.050000,0.219374
774.368959,0.100000,0.070711
774.402504,-0.100000,0.061237
774.436048,-0.225000,0.054486
774.469592,0.300000,0.100000
774.503136,0.050000,0.082916
774.536680,0.075000,0.064952
774.570223,0.175000,0.124373
774.603766,-0.025000,0.064952
774.637309,0.075000,0.054486
774.670852,0.075000,0.073951
774.704394,-0.050000,0.043301
774.737936,-0.050000,0.055902
774.771478,0.350000,0.363146
774.805020,0.525000,0.300780
774.838561,0.100000,0.070711
774.872102,0.425000,0.119242
774.905643,0.500000,0.276134
774.939183,0.350000,0.108972
774.972724,0.550000,0.534439
775.006264,0.150000,0.192029
775.039804,1.700000,0.425735
775.073343,0.700000,0.518411
775.106882,0.650000,0.167705
775.140421,0.375000,0.143069
775.173960,-0.350000,0.103078
775.207499,-0.025000,0.194856
775.241037,0.125000,0.167239
775.274575,0.025000,0.119242
775.308113,0.300000,0.165831
775.341650,0.275000,0.041458
775.375187,-0.000000,0.111803
775.408724,-0.250000,0.055902
775.442261,-0.050000,0.055902
775.475798,0.000000,0.154110
775.509334,0.250000,0.090139
775.542870,-0.100000,0.079057
775.576405,-0.150000,0.055902
775.609941,0.000000,0.093541
775.643476,-0.050000,0.090139
775.677011,-0.325000,0.073951
775.710546,0.425000,0.191621
775.744080,0.125000,0.054486
775.777614,0.025000,0.041458
775.811148,-0.075000,0.054486
775.844682,0.050000,0.114564
775.878215,-0.150000,0.082916
775.911748,0.050000,0.025000
775.945281,-0.025000,0.073951
775.978814,-0.125000,0.245904
776.012346,-0.075000,0.041458
776.045878,-0.150000,0.055902
776.079410,0.125000,0.089268
776.112941,0.150000,0.025000
776.146473,-0.075000,0.089268
776.180004,-0.075000,0.096014
776.213535,0.375000,0.021651
776.247065,0.150000,0.075000
776.280595,0.000000,0.070711
776.314125,-0.100000,0.035355
776.347655,0.075000,0.064952
776.381185,0.225000,0.369755
776.414714,0.200000,0.035355
776.448243,0.025000,0.041458
776.481772,0.125000,0.163459
776.515300,0.425000,0.216145
776.548828,0.225000,0.102317
776.582356,-0.250000,0.090139
776.615884,-0.100000,0.079057
776.649411,0.125000,0.108253
776.682938,0.125000,0.041458
776.716465,0.150000,0.075000
776.749992,0.250000,0.192029
776.783518,0.200000,0.169558
776.817044,0.850000,0.309233
776.850570,1.400000,0.145774
776.884096,1.700000,0.478278
776.917621,1.550000,0.354436
776.951146,0.325000,0.318934
776.984671,0.000000,0.226385
777.018196,0.100000,0.093541
777.051720,0.150000,0.188746
777.085244,0.400000,0.165831
777.118768,-0.325000,0.089268
777.152292,0.050000,0.055902
777.185815,0.325000,0.108253
777.219338,0.000000,0.070711
777.252861,-0.125000,0.021651
777.286383,0.150000,0.055902
777.319905,-0.125000,0.064952
777.353427,0.125000,0.054486
777.386949,0.550000,0.227761
777.420471,0.300000,0.173205
777.453992,0.125000,0.147373
777.487513,0.200000,0.061237
777.521033,-0.525000,0.054486
777.554554,-0.175000,0.096014
777.588074,0.050000,0.075000
777.621594,0.100000,0.035355
777.655114,0.050000,0.055902
777.688633,0.150000,0.114564
777.722152,0.025000,0.041458
777.755671,-0.075000,0.054486
777.789190,-0.050000,0.055902
777.822708,0.175000,0.113880
777.856226,0.325000,0.188331
777.889744,0.100000,0.035355
777.923261,0.400000,0.203101
777.956779,-0.025000,0.081968
777.990296,0.100000,0.035355
778.023812,0.625000,0.263095
778.057329,0.375000,0.501716
778.090845,0.200000,0.106066
778.124361,0.175000,0.119242
778.157877,-0.150000,0.025000
778.191392,-0.250000,0.055902
778.224908,0.200000,0.122474
778.258423,0.050000,0.043301
778.291937,0.000000,0.070711
778.325452,0.025000,0.054486
778.358966,-0.050000,0.167705
778.392480,0.125000,0.248433
778.425993,0.150000,0.336341
778.459507,0.025000,0.089268
778.493020,-0.175000,0.064952
778.526533,0.075000,0.041458
778.560045,0.100000,0.169558
778.593558,0.000000,0.117260
778.627070,0.375000,0.170935
778.660582,2.025000,0.308980
778.694093,1.425000,0.258300
778.727605,2.400000,0.475657
778.761116,1.475000,0.535461
778.794626,0.600000,0.169558
778.828137,0.225000,0.041458
778.861647,0.600000,0.262202
778.895157,0.075000,0.129301
778.928667,0.025000,0.041458
778.962176,-0.125000,0.021651
778.995686,0.100000,0.086603
779.029194,0.550000,0.195256
779.062703,0.075000,0.021651
779.096212,0.225000,0.089268
779.129720,0.125000,0.021651
779.163228,-0.150000,0.134629
779.196735,0.125000,0.155624
779.230243,-0.525000,0.155624
779.263750,0.025000,0.124373
779.297257,0.100000,0.061237
779.330763,0.425000,0.433554
779.364269,-0.050000,0.043301
779.397776,0.275000,0.073951
779.431281,0.425000,0.379761
779.464787,-0.075000,0.081968
779.498292,-0.075000,0.041458
779.531797,0.075000,0.021651
779.565302,0.225000,0.108253
779.598806,0.325000,0.258300
779.632311,0.325000,0.167239
779.665814,0.800000,0.562361
779.699318,0.100000,0.035355
779.732822,0.325000,0.159589
779.766325,0.250000,0.143614
779.799828,0.300000,0.145774
779.833330,0.150000,0.103078
779.866833,-0.150000,0.025000
779.900335,0.250000,0.134629
779.933837,0.100000,0.079057
779.967338,0.025000,0.073951
780.000840,-0.050000,0.075000
780.034341,-0.150000,0.134629
780.067841,0.125000,0.081968
780.101342,0.175000,0.138632
780.134842,0.200000,0.117260
780.168342,-0.050000,0.075000
780.201842,1.025000,0.322829
780.235341,0.400000,0.145774
780.268841,0.425000,0.167239
780.302340,0.000000,0.070711
780.335838,0.300000,0.145774
780.369337,0.225000,0.143069
780.402835,0.425000,0.174553
780.436333,1.400000,0.289396
780.469830,3.375000,0.361205
780.503328,2.750000,0.328824
780.536825,2.750000,0.410030
780.570322,0.925000,0.240767
780.603818,0.350000,0.192029
780.637315,0.025000,0.129301
780.670811,0.100000,0.093541
780.704306,0.375000,0.330483
780.737802,0.225000,0.108253
780.771297,0.300000,0.273861
780.804792,0.125000,0.129301
780.838287,0.450000,0.219374
780.871781,-0.100000,0.035355
780.905276,-0.225000,0.102317
780.938770,-0.375000,0.073951
780.972263,0.025000,0.054486
781.005757,0.450000,0.103078
781.039250,0.150000,0.075000
781.072743,0.050000,0.075000
781.106235,-0.075000,0.064952
781.139728,-0.200000,0.111803
781.173220,0.050000,0.134629
781.206712,0.325000,0.108253
781.240203,0.025000,0.081968
781.273694,0.600000,0.300000
781.307185,0.200000,0.079057
781.340676,0.075000,0.124373
781.374167,0.000000,0.050000
781.407657,0.625000,0.194856
781.441147,0.450000,0.460299
781.474636,-0.075000,0.041458
781.508126,-0.075000,0.041458
781.541615,0.075000,0.064952
781.575104,0.025000,0.041458
781.608593,0.100000,0.117260
781.642081,-0.075000,0.021651
781.675569,-0.075000,0.073951
781.709057,-0.075000,0.054486
781.742544,0.050000,0.025000
781.776032,-0.050000,0.075000
781.809519,-0.025000,0.041458
781.843006,0.175000,0.096014
781.876492,0.175000,0.102317
781.909978,0.200000,0.086603
781.943464,0.225000,0.102317
781.976950,0.150000,0.108972
782.010435,0.050000,0.055902
782.043921,0.250000,0.108972
782.077406,0.500000,0.122474
782.110890,0.125000,0.064952
782.144375,-0.125000,0.054486
782.177859,0.175000,0.073951
782.211343,-0.075000,0.041458
782.244826,1.650000,0.188746
782.278309,3.050000,0.270416
782.311792,5.675000,0.640678
782.345275,4.650000,0.660019
782.378758,2.525000,0.499218
782.412240,0.950000,0.275000
782.445722,0.800000,0.280624
782.479204,0.625000,0.290205
782.512685,-0.325000,0.064952
782.546166,0.100000,0.061237
782.579647,0.400000,0.127475
782.613128,0.125000,0.064952
782.646608,0.125000,0.108253
782.680088,0.025000,0.041458
782.713568,-0.150000,0.082916
782.747048,0.250000,0.134629
782.780527,0.175000,0.446339
782.814006,-0.075000,0.041458
782.847485,-0.150000,0.075000
782.880963,0.125000,0.108253
782.914442,0.100000,0.106066
782.947920,0.100000,0.061237
782.981397,0.225000,0.194856
783.014875,0.050000,0.082916
783.048352,0.000000,0.061237
783.081829,0.075000,0.240767
783.115306,0.450000,0.129904
783.148782,-0.025000,0.124373
783.182258,-0.100000,0.117260
783.215734,0.050000,0.134629
783.249209,-0.275000,0.081968
783.282685,0.150000,0.103078
783.316160,0.275000,0.245904
783.349635,-0.100000,0.061237
783.383109,-0.175000,0.163459
783.416583,0.275000,0.191621
783.450057,0.250000,0.082916
783.483531,-0.050000,0.055902
783.517004,0.500000,0.271570
783.550477,0.050000,0.090139
783.583950,0.150000,0.152069
783.617423,0.125000,0.129301
783.650895,0.150000,0.082916
783.684367,-0.050000,0.082916
783.717839,-0.550000,0.075000
783.751311,-0.125000,0.064952
783.784782,0.675000,0.283670
783.818253,0.650000,0.376663
783.851724,0.325000,0.147373
783.885194,0.175000,0.041458
783.918665,-0.025000,0.041458
783.952134,0.275000,0.054486
783.985604,0.125000,0.073951
784.019074,0.325000,0.155624
784.052543,0.950000,0.178536
784.086012,1.725000,0.522464
784.119480,4.750000,0.620987
784.152948,2.925000,0.232849
784.186416,5.000000,0.679154
784.219884,3.950000,0.609816
784.253352,0.800000,0.127475
784.286819,0.675000,0.304908
784.320286,0.225000,0.216145
784.353753,0.175000,0.073951
784.387219,0.075000,0.073951
784.420685,0.125000,0.081968
784.454151,0.125000,0.096014
784.487617,-0.125000,0.064952
784.521082,0.150000,0.025000
784.554547,0.225000,0.073951
784.588012,-0.050000,0.108972
784.621477,-0.075000,0.021651
784.654941,0.050000,0.055902
784.688405,0.250000,0.134629
784.721869,0.175000,0.178098
784.755332,0.475000,0.248433
784.788795,0.075000,0.096014
784.822258,0.300000,0.176777
784.855721,0.150000,0.090139
784.889183,0.075000,0.073951
784.922646,-0.050000,0.043301
784.956107,0.100000,0.035355
784.989569,-0.050000,0.103078
785.023030,-0.025000,0.096014
785.056491,0.050000,0.075000
785.089952,0.125000,0.021651
785.123413,0.100000,0.226385
785.156873,-0.325000,0.041458
785.190333,0.150000,0.167705
785.223792,0.250000,0.103078
785.257252,0.075000,0.108253
785.290711,-0.075000,0.021651
785.324170,0.125000,0.041458
785.357629,0.100000,0.079057
785.391087,0.850000,0.622997
785.424545,0.050000,0.114564
785.458003,-0.025000,0.041458
785.491460,0.025000,0.096014
785.524918,0.500000,0.176777
785.558375,0.125000,0.113880
785.591831,-0.025000,0.096014
785.625288,0.075000,0.041458
785.658744,0.225000,0.096014
785.692200,0.100000,0.276134
785.725655,0.100000,0.127475
785.759111,0.375000,0.151554
785.792566,0.125000,0.096014
785.826021,0.700000,0.257391
785.859475,0.275000,0.210283
785.892930,0.875000,0.424816
785.926384,3.000000,0.443001
785.959837,3.425000,0.771666
785.993291,8.700000,1.189538
786.026744,8.250000,0.279508
786.060197,6.275000,0.942321
786.093649,2.150000,0.576086
786.127102,0.350000,0.219374
786.160554,0.250000,0.114564
786.194006,0.075000,0.041458
786.227457,0.100000,0.117260
786.260909,0.600000,0.310242
786.294360,0.075000,0.096014
786.327810,0.075000,0.124373
786.361261,0.075000,0.054486
786.394711,0.200000,0.117260
786.428161,-0.100000,0.070711
786.461611,0.225000,0.113880
786.495060,0.050000,0.114564
786.528509,-0.025000,0.155624
786.561958,-0.025000,0.021651
786.595407,0.725000,0.549289
786.628855,0.225000,0.041458
786.662303,-0.050000,0.103078
786.695751,0.175000,0.054486
786.729198,0.100000,0.093541
786.762645,0.250000,0.125000
786.796092,0.025000,0.089268
786.829539,0.125000,0.021651
786.862985,0.075000,0.216145
786.896431,0.075000,0.138632
786.929877,0.175000,0.081968
786.963323,0.100000,0.162019
786.996768,0.225000,0.064952
787.030213,0.225000,0.143069
787.063658,-0.225000,0.073951
787.097102,0.150000,0.082916
787.130547,-0.525000,0.041458
787.163991,-0.175000,0.064952
787.197434,-0.175000,0.064952
787.230878,0.475000,0.108253
787.264321,0.175000,0.064952
787.297764,0.300000,0.106066
787.331206,0.200000,0.106066
787.364648,0.375000,0.096014
787.398090,0.200000,0.050000
787.431532,0.600000,0.176777
787.464974,0.025000,0.089268
787.498415,-0.375000,0.054486
787.531856,0.200000,0.061237
787.565296,-0.275000,0.054486
787.598737,0.400000,0.276134
787.632177,0.325000,0.096014
787.665617,-0.075000,0.113880
787.699056,0.275000,0.221853
787.732496,0.325000,0.604540
787.765935,1.150000,0.265754
787.799373,3.400000,0.416833
787.832812,8.075000,1.642930
787.866250,9.325000,0.658004
787.899688,9.600000,1.010569
787.933126,7.525000,1.391660
787.966563,2.700000,0.566789
788.000000,1.150000,0.219374
788.033437,0.125000,0.073951
788.066873,0.400000,0.154110
788.100310,0.175000,0.021651
788.133746,0.250000,0.103078
788.167181,0.250000,0.075000
788.200617,0.325000,0.170935
788.234052,0.100000,0.035355
788.267487,0.150000,0.167705
788.300921,0.250000,0.192029
788.334356,0.125000,0.096014
788.367790,0.175000,0.119242
788.401224,0.200000,0.079057
788.434657,0.075000,0.210283
788.468090,0.025000,0.064952
788.501523,0.375000,0.089268
788.534956,0.125000,0.138632
788.568389,0.875000,0.430661
788.601821,-0.025000,0.041458
788.635253,0.050000,0.082916
788.668684,0.025000,0.064952
788.702116,0.125000,0.064952
788.735547,-0.025000,0.096014
788.768977,0.350000,0.108972
788.802408,0.000000,0.061237
788.835838,0.250000,0.219374
788.869268,0.400000,0.035355
788.902698,0.100000,0.093541
788.936127,0.400000,0.382426
788.969556,0.375000,0.224653
789.002985,0.225000,0.113880
789.036414,0.250000,0.025000
789.069842,0.250000,0.075000
789.103270,0.275000,0.108253
789.136698,0.100000,0.061237
789.170125,0.275000,0.129301
789.203552,0.150000,0.082916
789.236979,0.225000,0.073951
789.270406,0.000000,0.079057
789.303832,0.425000,0.296595
789.337258,0.175000,0.155624
789.370684,0.475000,0.499218
789.404110,0.025000,0.096014
789.437535,0.725000,0.290205
789.470960,0.225000,0.119242
789.504385,0.025000,0.064952
789.537809,0.050000,0.043301
789.571233,0.275000,0.163459
789.604657,1.425000,0.434993
789.638081,3.225000,0.361205
789.671504,6.000000,0.462331
789.704927,10.933333,1.289541
789.738350,14.375000,2.172952
789.771772,12.675000,1.301141
789.805195,4.033333,0.334166
789.838617,2.225000,0.554949
789.872038,0.525000,0.350669
789.905460,-0.050000,0.317214
789.938881,0.375000,0.170935
789.972302,0.150000,0.188746
790.005722,0.000000,0.127475
790.039143,-0.100000,0.117260
790.072563,0.500000,0.308221
790.105982,0.450000,0.195256
790.139402,0.200000,0.061237
790.172821,0.025000,0.263095
790.206240,0.025000,0.096014
790.239658,0.150000,0.114564
790.273077,0.350000,0.075000
790.306495,-0.050000,0.134629
790.339913,0.275000,0.155624
790.373330,-0.000000,0.079057
790.406747,0.275000,0.147373
790.440164,0.050000,0.160078
790.473581,0.375000,0.163459
790.506997,-0.075000,0.119242
790.540414,0.275000,0.124373
790.573829,0.200000,0.000000
790.607245,0.175000,0.129301
790.640660,0.500000,0.327872
790.674075,0.200000,0.122474
790.707490,0.075000,0.073951
790.740904,0.225000,0.041458
790.774319,0.400000,0.145774
790.807733,0.225000,0.089268
790.841146,0.375000,0.201168
790.874560,-0.250000,0.114564
790.907973,0.475000,0.383039
790.941385,0.475000,0.081968
790.974798,0.375000,0.245904
791.008210,0.225000,0.124373
791.041622,-0.025000,0.240767
791.075034,0.300000,0.106066
791.108445,0.225000,0.343466
791.141856,0.650000,0.167705
791.175267,0.025000,0.124373
791.208678,0.175000,0.134048
791.242088,0.275000,0.089268
791.275498,0.350000,0.188746
791.308908,0.250000,0.043301
791.342317,0.150000,0.075000
791.375726,1.000000,0.474342
791.409135,0.325000,0.216145
791.442544,0.050000,0.114564
791.475952,1.850000,0.549432
791.509360,8.000000,1.237942
791.542768,15.550000,0.493077
791.576176,23.525000,0.622871
791.609583,29.975000,2.143704
791.642990,22.550000,1.504369
791.676396,8.400000,0.660492
791.709803,1.025000,0.163459
791.743209,0.825000,0.276981
791.776615,0.175000,0.073951
791.810020,0.175000,0.064952
791.843425,0.275000,0.073951
791.876830,-0.525000,0.064952
791.910235,0.125000,0.124373
791.943640,-0.050000,0.082916
791.977044,0.100000,0.379144
792.010448,0.575000,0.235518
792.043851,0.175000,0.089268
792.077254,0.000000,0.111803
792.110658,0.050000,0.055902
792.144060,0.625000,0.276981
792.177463,0.325000,0.181573
792.210865,0.075000,0.143069
792.244267,0.225000,0.108253
792.277668,-0.075000,0.041458
792.311070,0.300000,0.262202
792.344471,0.600000,0.231840
792.377872,0.150000,0.082916
792.411272,0.050000,0.055902
792.444672,0.050000,0.167705
792.478072,0.150000,0.125000
792.511472,-0.175000,0.041458
792.544871,0.100000,0.035355
792.578271,0.100000,0.086603
792.611669,0.175000,0.113880
792.645068,0.175000,0.134048
792.678466,-0.275000,0.021651
792.711864,-0.050000,0.114564
792.745262,-0.075000,0.143069
792.778659,0.100000,0.061237
792.812056,-0.200000,0.093541
792.845453,0.425000,0.151554
792.878850,0.225000,0.113880
792.912246,0.225000,0.054486
792.945642,0.775000,0.281458
792.979038,0.175000,0.108253
793.012433,0.350000,0.082916
793.045829,0.275000,0.143069
793.079223,0.200000,0.318198
793.112618,0.400000,0.365718
793.146012,0.475000,0.285865
793.179406,-0.300000,0.093541
793.212800,0.125000,0.188331
793.246194,-0.100000,0.035355
793.279587,0.750000,0.182003
793.312980,1.000000,0.297909
793.346373,0.825000,0.232849
793.379765,4.825000,0.748645
793.413157,14.250000,0.798044
793.446549,20.800000,1.329003
793.479940,33.875000,1.354333
793.513332,30.400000,0.498748
793.546723,14.625000,0.485251
793.580113,4.800000,0.634429
793.613504,1.500000,0.416833
793.646894,0.250000,0.261008
793.680284,0.525000,0.260708
793.713673,0.000000,0.093541
793.747062,-0.025000,0.041458
793.780451,0.000000,0.035355
793.813840,0.400000,0.106066
793.847228,0.575000,0.155624
793.880617,0.000000,0.035355
793.914004,0.100000,0.086603
793.947392,-0.175000,0.096014
793.980779,0.450000,0.361421
794.014166,-0.175000,0.096014
794.047553,0.350000,0.167705
794.080940,0.225000,0.143069
794.114326,0.100000,0.079057
794.147712,0.175000,0.041458
794.181097,0.350000,0.167705
794.214483,0.300000,0.136931
794.247868,0.775000,0.294480
794.281252,0.650000,0.246221
794.314637,0.200000,0.212132
794.348021,1.275000,0.464186
794.381405,0.450000,0.192029
794.414788,0.050000,0.075000
794.448172,0.300000,0.061237
794.481555,0.075000,0.155624
794.514938,0.100000,0.093541
794.548320,0.100000,0.145774
794.581702,0.150000,0.043301
794.615084,0.450000,0.143614
794.648466,0.775000,0.362931
794.681847,0.625000,0.250936
794.715228,-0.200000,0.206155
794.748609,0.575000,0.216145
794.781990,-0.550000,0.235850
794.815370,1.475000,0.487820
794.848750,0.125000,0.134048
794.882129,-0.325000,0.096014
794.915509,0.225000,0.073951
794.948888,-0.375000,0.096014
794.982267,0.075000,0.054486
795.015645,-0.025000,0.054486
795.049023,0.300000,0.162019
795.082401,0.050000,0.025000
795.115779,0.100000,0.070711
795.149156,0.475000,0.328586
795.182534,0.625000,0.155624
795.215910,0.425000,0.102317
795.249287,3.200000,0.316228
795.282663,11.900000,0.552268
795.316039,27.325000,1.145303
795.349415,51.050000,0.747078
795.382790,64.766667,2.501083
795.416165,42.200000,1.517811
795.449540,13.150000,0.806613
795.482915,3.400000,0.470372
795.516289,0.525000,0.064952
795.549663,0.100000,0.136931
795.583037,0.075000,0.081968
795.616410,0.275000,0.170935
795.649783,-0.050000,0.275000
795.683156,0.000000,0.061237
795.716529,0.450000,0.125000
795.749901,0.025000,0.167239
795.783273,0.050000,0.055902
795.816645,0.075000,0.054486
795.850016,0.250000,0.152069
795.883387,0.550000,0.305164
795.916758,0.150000,0.167705
795.950129,0.325000,0.108253
795.983499,-0.150000,0.055902
796.016869,0.100000,0.176777
796.050239,-0.350000,0.082916
796.083608,0.275000,0.054486
796.116977,0.400000,0.173205
796.150346,-0.075000,0.147373
796.183714,0.375000,0.326678
796.217083,0.675000,0.302851
796.250451,-0.100000,0.154110
796.283818,0.600000,0.206155
796.317186,0.075000,0.163459
796.350553,0.325000,0.167239
796.383920,0.375000,0.124373
796.417286,0.200000,0.035355
796.450653,-0.025000,0.064952
796.484019,0.475000,0.129301
796.517384,0.200000,0.136931
796.550750,0.250000,0.201556
796.584115,0.300000,0.093541
796.617480,0.150000,0.075000
796.650844,0.250000,0.147902
796.684209,0.175000,0.041458
796.717573,0.025000,0.089268
796.750936,0.225000,0.054486
796.784300,0.200000,0.162019
796.817663,0.350000,0.108972
796.851026,0.200000,0.117260
796.884388,-0.200000,0.111803
796.917751,0.100000,0.093541
796.951113,0.150000,0.090139
796.984474,0.725000,0.276981
797.017836,0.350000,0.134629
797.051197,0.350000,0.246221
797.084558,0.575000,0.073951
797.117918,1.050000,0.082916
797.151279,4.425000,0.648436
797.184639,19.850000,2.013858
797.217998,39.325000,1.151290
797.251358,48.825000,0.548150
797.284717,68.950000,3.238923
797.318076,33.800000,0.921276
797.351434,8.333333,0.632785
797.384793,1.750000,0.325000
797.418151,0.700000,0.203101
797.451508,0.425000,0.119242
797.484866,0.250000,0.129904
797.518223,0.500000,0.220794
797.551580,-0.025000,0.155624
797.584936,0.300000,0.111803
797.618292,0.625000,0.384667
797.651648,0.100000,0.079057
797.685004,0.150000,0.055902
797.718360,0.525000,0.124373
797.751715,0.325000,0.194856
797.785069,0.450000,0.163936
797.818424,0.075000,0.089268
797.851778,0.450000,0.364863
797.885132,-0.300000,0.061237
797.918486,0.750000,0.213600
797.951839,0.875000,0.292350
797.985192,0.225000,0.235518
798.018545,0.275000,0.021651
798.051898,0.375000,0.096014
798.085250,0.125000,0.064952
798.118602,-0.025000,0.054486
798.151954,0.350000,0.268095
798.185305,-0.125000,0.064952
798.218656,0.775000,0.285865
798.252007,0.675000,0.096014
798.285357,0.700000,0.348210
798.318708,0.125000,0.216145
798.352057,1.000000,0.252488
798.385407,0.600000,0.271570
798.418756,0.275000,0.155624
798.452106,0.425000,0.167239
798.485454,0.250000,0.163936
798.518803,0.625000,0.188331
798.552151,-0.050000,0.075000
798.585499,0.575000,0.210283
798.618847,0.075000,0.155624
798.652194,0.450000,0.082916
798.685541,0.775000,0.417395
798.718888,0.225000,0.081968
798.752234,0.175000,0.155624
798.785580,0.675000,0.155624
798.818926,0.625000,0.341641
798.852272,0.200000,0.117260
798.885617,0.025000,0.064952
798.918962,0.625000,0.255869
798.952307,0.625000,0.322829
798.985651,0.625000,0.143069
799.018996,0.700000,0.187083
799.052339,5.975000,0.817294
799.085683,15.033333,0.414327
799.119026,49.066667,4.111620
799.152369,80.750000,2.936941
799.185712,107.200000,2.634151
799.219054,56.675000,1.988522
799.252397,15.900000,1.675933
799.285738,3.225000,0.395877
799.319080,1.750000,0.477624
799.352421,1.200000,0.448609
799.385762,0.375000,0.151554
799.419103,0.375000,0.184983
799.452443,0.200000,0.086603
799.485783,0.925000,0.374792
799.519123,0.100000,0.061237
799.552463,0.150000,0.090139
799.585802,-0.025000,0.073951
799.619141,0.250000,0.075000
799.652480,0.175000,0.054486
799.685818,-0.050000,0.108972
799.719156,0.925000,0.213234
799.752494,0.325000,0.129301
799.785831,0.375000,0.216145
799.819169,0.100000,0.061237
799.852506,0.800000,0.419821
799.885842,0.575000,0.227418
799.919179,0.300000,0.145774
799.952515,0.375000,0.134048
799.985850,0.625000,0.276981
800.019186,0.275000,0.096014
800.052521,0.225000,0.124373
800.085856,0.150000,0.219374
800.119191,1.150000,0.328824
800.152525,0.525000,0.326678
800.185859,0.850000,0.368273
800.219193,0.550000,0.178536
800.252526,0.750000,0.207666
800.285859,0.225000,0.073951
800.319192,0.100000,0.079057
800.352525,0.400000,0.247487
800.385857,0.525000,0.341641
800.419189,0.550000,0.043301
800.452521,0.500000,0.206155
800.485852,1.025000,0.485251
800.519183,0.525000,0.394295
800.552514,1.125000,0.155624
800.585844,-0.175000,0.300780
800.619175,0.375000,0.113880
800.652505,0.825000,0.240767
800.685834,1.025000,0.288043
800.719164,0.500000,0.190394
800.752493,0.350000,0.108972
800.785821,0.350000,0.055902
800.819150,0.200000,0.093541
800.852478,0.175000,0.129301
800.885806,0.550000,0.160078
800.919134,1.650000,0.251247
800.952461,4.500000,0.792149
800.985788,24.200000,1.176860
801.019115,90.875000,3.224976
801.052441,177.225000,5.495495
801.085767,262.100000,2.353455
801.119093,181.033333,7.022672
801.152419,51.733333,2.943708
801.185744,11.566667,0.552645
801.219069,2.850000,0.227761
801.252394,0.550000,0.188746
801.285718,0.600000,0.169558
801.319042,0.525000,0.163459
801.352366,0.100000,0.122474
801.385690,0.725000,0.477461
801.419013,-0.050000,0.419076
801.452336,0.250000,0.082916
801.485658,0.100000,0.571183
801.518981,0.475000,0.174553
801.552303,0.225000,0.119242
801.585625,0.275000,0.147373
801.618946,0.275000,0.124373
801.652267,0.050000,0.103078
801.685588,0.075000,0.073951
801.718909,0.100000,0.050000
801.752229,0.400000,0.234521
801.785549,0.425000,0.089268
801.818869,0.525000,0.089268
801.852188,0.125000,0.108253
801.885507,0.625000,0.143069
801.918826,0.400000,0.061237
801.952145,-0.075000,0.041458
801.985463,0.500000,0.190394
802.018781,0.850000,0.182003
802.052099,1.250000,0.375000
802.085416,0.500000,0.262202
802.118733,0.650000,0.182003
802.152050,0.500000,0.215058
802.185366,0.275000,0.054486
802.218683,0.500000,0.061237
802.251999,0.525000,0.240767
802.285314,-0.275000,0.041458
802.318630,0.475000,0.163459
802.351945,0.125000,0.041458
802.385259,0.175000,0.221853
802.418574,0.375000,0.089268
802.451888,0.300000,0.035355
802.485202,0.400000,0.176777
802.518515,0.125000,0.124373
802.551829,0.775000,0.283670
802.585142,0.725000,0.207289
802.618454,0.150000,0.075000
802.651767,0.325000,0.119242
802.685079,-0.100000,0.203101
802.718391,0.475000,0.041458
802.751702,0.075000,0.096014
802.785013,0.500000,0.035355
802.818324,1.325000,0.174553
802.851635,2.375000,0.302851
802.884945,8.975000,0.746136
802.918255,45.775000,1.716601
802.951565,161.900000,2.452040
802.984874,254.325000,2.103086
803.018184,307.200000,7.584771
803.051492,168.533333,2.795607
803.084801,34.933333,1.132107
803.118109,7.900000,1.432219
803.151417,1.550000,0.160078
803.184725,0.700000,0.348210
803.218032,0.925000,0.194856
803.251339,0.550000,0.147902
803.284646,0.575000,0.108253
803.317953,0.325000,0.021651
803.351259,-0.150000,0.025000
803.384565,0.225000,0.174553
803.417870,0.225000,0.021651
803.451176,0.300000,0.154110
803.484481,0.225000,0.054486
803.517786,0.675000,0.138632
803.551090,0.800000,0.358818
803.584394,1.125000,0.381404
803.617698,0.350000,0.143614
803.651002,0.525000,0.143069
803.684305,0.200000,0.136931
803.717608,0.525000,0.302851
803.750910,0.500000,0.183712
803.784213,1.625000,0.330483
803.817515,0.675000,0.341641
803.850817,0.300000,0.327872
803.884118,0.950000,0.075000
803.917419,1.750000,0.230489
803.950720,1.500000,0.329773
803.984021,1.000000,0.289396
804.017321,0.775000,0.276981
804.050621,0.000000,0.035355
804.083921,0.575000,0.347086
804.117220,0.625000,0.096014
804.150519,0.500000,0.136931
804.183818,0.775000,0.143069
804.217117,-0.050000,0.143614
804.250415,0.775000,0.213234
804.283713,0.475000,0.021651
804.317011,0.375000,0.167239
804.350308,0.925000,0.073951
804.383605,0.500000,0.176777
804.416902,0.700000,0.297909
804.450198,0.750000,0.134629
804.483494,0.650000,0.305164
804.516790,0.625000,0.210283
804.550086,0.375000,0.129301
804.583381,0.550000,0.235850
804.616676,0.750000,0.195256
804.649971,1.000000,0.250000
804.683265,0.525000,0.089268
804.716559,0.550000,0.238485
804.749853,2.050000,0.363146
804.783146,1.925000,0.324760
804.816440,11.125000,0.746973
804.849732,62.300000,2.636996
804.883025,205.766667,2.300091
804.916317,356.633333,3.630484
804.949609,409.366667,6.854317
804.982901,224.675000,10.036644
805.016192,47.375000,0.577034
805.049484,6.566667,0.347011
805.082774,0.975000,0.198037
805.116065,1.300000,0.262202
805.149355,0.300000,0.203101
805.182645,0.600000,0.237171
805.215935,0.575000,0.073951
805.249224,0.475000,0.174553
805.282513,0.775000,0.421863
805.315802,0.575000,0.096014
805.349090,0.325000,0.134048
805.382378,0.275000,0.073951
805.415666,0.375000,0.134048
805.448954,0.475000,0.119242
805.482241,0.425000,0.258300
805.515528,1.325000,0.188331
805.548815,1.425000,0.587766
805.582101,0.875000,0.313000
805.615387,0.575000,0.191621
805.648673,1.300000,0.410792
805.681958,0.625000,0.276981
805.715243,1.300000,0.696419
805.748528,1.400000,0.353553
805.781813,1.150000,0.241091
805.815097,1.450000,0.082916
805.848381,0.475000,0.504201
805.881665,0.575000,0.348882
805.914948,0.950000,0.160078
805.948231,0.500000,0.348210
805.981514,0.575000,0.235518
806.014796,0.500000,0.127475
806.048079,1.075000,0.394295
806.081360,0.875000,0.230149
806.114642,0.725000,0.021651
806.147923,0.900000,0.190394
806.181204,0.425000,0.235518
806.214485,0.650000,0.235850
806.247765,0.150000,0.075000
806.281046,0.450000,0.219374
806.314325,0.300000,0.212132
806.347605,0.875000,0.138632
806.380884,-0.150000,0.182003
806.414163,1.375000,0.397453
806.447441,1.325000,0.686818
806.480720,0.875000,0.415895
806.513998,1.025000,0.267804
806.547275,1.050000,0.420565
806.580553,0.875000,0.219018
806.613830,0.800000,0.145774
806.647107,1.075000,0.240767
806.680383,1.875000,0.332368
806.713659,4.225000,0.660847
806.746935,8.850000,0.410030
806.780211,71.175000,1.423190
806.813486,295.900000,4.104875
806.846761,593.950000,9.497927
806.880036,739.400000,4.924302
806.913310,549.225000,15.876137
806.946584,120.333333,5.461036
806.979858,23.125000,1.104748
807.013132,3.675000,0.527227
807.046405,1.800000,0.440170
807.079678,0.700000,0.196850
807.112951,1.400000,0.431567
807.146223,0.425000,0.283670
807.179495,0.700000,0.237171
807.212767,0.250000,0.454835
807.246038,1.275000,0.337963
807.279309,1.325000,0.376456
807.312580,0.650000,0.175000
807.345850,0.100000,0.035355
807.379121,0.650000,0.343693
807.412390,1.175000,0.440703
807.445660,1.025000,0.064952
807.478929,0.875000,0.174553
807.512198,0.775000,0.308980
807.545467,0.275000,0.113880
807.578735,0.500000,0.136931
807.612004,-0.200000,0.196850
807.645271,0.475000,0.270127
807.678539,0.850000,0.540255
807.711806,1.500000,0.173205
807.745073,0.675000,0.188331
807.778340,1.050000,0.311247
807.811606,2.475000,0.279229
807.844872,1.375000,0.313000
807.878138,0.925000,0.355976
807.911403,0.400000,0.100000
807.944668,1.150000,0.261008
807.977933,0.625000,0.147373
808.011197,1.475000,0.300780
808.044462,1.050000,0.129904
808.077725,1.050000,0.075000
808.110989,0.875000,0.134048
808.144252,0.750000,0.075000
808.177515,0.650000,0.134629
808.210778,0.675000,0.124373
808.244040,1.550000,0.334477
808.277302,0.875000,0.318934
808.310564,0.625000,0.174553
808.343826,1.450000,0.167705
808.377087,0.725000,0.134048
808.410348,0.800000,0.145774
808.443608,1.525000,0.318934
808.476869,1.150000,0.182003
808.510129,0.925000,0.387903
808.543388,1.275000,0.213234
808.576648,1.650000,0.075000
808.609907,1.400000,0.203101
808.643165,2.300000,0.750833
808.676424,6.700000,0.561249
808.709682,35.825000,1.579310
808.742940,243.600000,4.549038
808.776197,752.825000,11.542713
808.809455,1049.575000,5.050913
808.842712,1026.550000,15.857904
808.875968,431.066667,11.847011
808.909225,76.925000,1.704177
808.942481,16.000000,1.311011
808.975736,2.600000,0.237171
809.008992,1.750000,0.617960
809.042247,1.233333,0.300694
809.075502,0.650000,0.178536
809.108756,-0.125000,0.113880
809.142011,1.175000,0.274716
809.175265,0.625000,0.174553
809.208518,0.525000,0.021651
809.241772,0.675000,0.073951
809.275025,1.225000,0.345281
809.308277,0.725000,0.151554
809.341530,1.125000,0.081968
809.374782,2.200000,0.379144
809.408034,2.425000,0.423342
809.441285,1.300000,0.462331
809.474536,1.800000,0.704450
809.507787,1.400000,0.780224
809.541038,1.600000,0.266927
809.574288,1.850000,0.275000
809.607538,1.200000,0.183712
809.640788,1.275000,0.227418
809.674037,1.425000,0.163459
809.707286,1.950000,0.505594
809.740535,2.275000,0.369755
809.773783,2.975000,0.276981
809.807032,2.675000,0.418890
809.840279,1.700000,0.422788
809.873527,1.450000,0.227761
809.906774,2.850000,0.548293
809.940021,2.400000,0.682825
809.973268,2.275000,0.511585
810.006514,2.075000,0.235518
810.039760,1.600000,0.280624
810.073006,2.900000,0.541987
810.106251,3.100000,0.650961
810.139497,1.975000,0.213234
810.172741,1.725000,0.230149
810.205986,2.125000,0.300780
810.239230,1.675000,0.096014
810.272474,2.725000,0.300780
810.305718,4.000000,0.497494
810.338961,3.200000,0.660492
810.372204,3.200000,0.237171
810.405447,2.725000,0.096014
810.438689,3.400000,0.093541
810.471931,4.375000,0.362931
810.505173,4.575000,0.337963
810.538414,4.525000,0.243349
810.571656,5.375000,0.216145
810.604897,8.950000,0.364863
810.638137,15.875000,0.804965
810.671377,82.075000,1.953962
810.704617,525.450000,7.847969
810.737857,1628.550000,17.927963
810.771096,1980.425000,10.360766
810.804335,1677.300000,20.805318
810.837574,688.450000,14.027139
810.870813,94.000000,2.717536
810.904051,22.550000,1.470757
810.937288,4.250000,0.195256
810.970526,1.700000,0.459619
811.003763,0.600000,0.117260
811.037000,1.050000,0.268095
811.070237,0.775000,0.170935
811.103473,-0.125000,0.041458
811.136709,0.775000,0.381404
811.169945,-0.200000,0.162019
811.203180,0.325000,0.201168
811.236415,1.025000,0.283670
811.269650,0.175000,0.113880
811.302884,1.275000,0.516448
811.336119,0.700000,0.273861
811.369352,0.725000,0.397453
811.402586,2.875000,0.255869
811.435819,1.725000,0.577034
811.469052,3.375000,0.391112
811.502285,2.850000,0.420565
811.535517,0.333333,0.265361
811.568749,2.525000,0.879897
811.601981,2.600000,0.506211
811.635212,0.775000,0.300780
811.668443,0.875000,0.240767
811.701674,0.875000,0.267804
811.734905,2.100000,0.590551
811.768135,1.500000,0.247487
811.801365,2.400000,0.430116
811.834594,0.775000,0.320887
811.867824,0.175000,0.265460
811.901053,0.900000,0.501248
811.934281,-0.025000,0.163459
811.967510,0.525000,0.330483
812.000738,0.375000,0.232849
812.033965,0.375000,0.298695
812.067193,0.650000,0.265754
812.100420,1.025000,0.582425
812.133647,0.275000,0.230149
812.166873,-0.400000,0.448609
812.200099,1.125000,0.343466
812.233325,0.825000,0.381404
812.266551,0.750000,0.279508
812.299776,0.575000,0.174553
812.333001,0.650000,0.167705
812.366226,0.750000,0.134629
812.399450,0.425000,0.324760
812.432674,0.525000,0.306951
812.465898,0.500000,0.136931
812.499121,0.550000,0.277263
812.532345,0.850000,0.336341
812.565567,1.825000,0.129301
812.598790,3.075000,0.408312
812.632012,17.150000,0.763626
812.665234,130.950000,1.316007
812.698456,525.325000,7.958908
812.731677,873.250000,19.188033
812.764898,784.150000,12.632770
812.798119,374.050000,8.946403
812.831339,49.450000,2.104905
812.864559,7.333333,1.082436
812.897779,2.150000,0.650481
812.930998,0.825000,0.255869
812.964217,0.775000,0.201168
812.997436,0.200000,0.176777
813.030655,0.550000,0.309233
813.063873,0.200000,0.136931
813.097091,0.425000,0.119242
813.130308,-0.400000,0.150000
813.163526,0.425000,0.170935
813.196743,0.175000,0.298695
813.229959,0.050000,0.103078
813.263176,0.900000,0.375832
813.296392,-0.050000,0.251247
813.329607,0.100000,0.079057
813.362823,0.650000,0.258602
813.396038,0.225000,0.227418
813.429253,-0.150000,0.082916
813.462467,0.200000,0.111803
813.495682,0.900000,0.154110
813.528895,0.075000,0.089268
813.562109,0.300000,0.136931
813.595322,0.000000,0.050000
813.628535,0.875000,0.178098
813.661748,0.375000,0.272431
813.694960,0.225000,0.210283
813.728172,0.125000,0.174553
813.761384,0.625000,0.288043
813.794596,0.175000,0.477461
813.827807,-0.475000,0.096014
813.861017,0.325000,0.379761
813.894228,0.375000,0.054486
813.927438,0.400000,0.035355
813.960648,0.350000,0.134629
813.993858,-0.025000,0.054486
814.027067,0.100000,0.070711
814.060276,0.125000,0.224653
814.093485,0.200000,0.154110
814.126693,0.250000,0.340037
814.159901,0.150000,0.343693
814.193109,-0.325000,0.073951
814.226316,0.550000,0.235850
814.259523,0.300000,0.297909
814.292730,0.375000,0.245904
814.325936,0.775000,0.178098
814.359143,0.075000,0.108253
814.392348,0.125000,0.143069
814.425554,0.225000,0.221853
814.458759,0.075000,0.181573
814.491964,0.425000,0.267804
814.525169,0.700000,0.231840
814.558373,0.325000,0.201168
814.591577,0.675000,0.534293
814.624781,0.575000,0.159589
814.657984,0.666667,0.088976
