#{
#    "background_file": "Backgrounds\\\\bg_787.999nm_16bin_197st_244en_10.0s_110g_4x_1_seq.txt",
#    "ccd_image_settings": [
#        1,
#        16,
#        1,
#        1600,
#        197,
#        244
#    ],
#    "ccd_temperature": "-88",
#    "cdRatios": {
#        "mean": 0.9137030030069608,
#        "std": 0.007098129845727762
#    },
#    "center_lambda": 788.0,
#    "comments": "",
#    "dark_region": 0.3112538169371465,
#    "date": "11/17/19 14:55:38PM",
#    "eff_field": 1.5,
#    "exposure": 10.0,
#    "fel_lambda": "15.0",
#    "fel_pol": "H",
#    "fel_pulses": 40,
#    "fel_pyro_cal": "0.017",
#    "fel_reprate": "1.07",
#    "fel_transmission": "1.0",
#    "fel_transmission_fits": {
#        "A": 1.0,
#        "C": 0.0,
#        "Mu": 0.0
#    },
#    "fieldInt": {
#        "mean": 9865.876,
#        "std": 352.1966628280329
#    },
#    "fieldStrength": {
#        "mean": 45.566159090909096,
#        "std": 0.8205355024910304
#    },
#    "fpTime": {
#        "mean": 1.2928868406906173,
#        "std": 0.08730823833987533
#    },
#    "gain": 110,
#    "grating": 3,
#    "images_in_sequence": [
#        "hsg_SpotD_crystal16_a00_HAna209.txt",
#        "hsg_SpotD_crystal16_a00_HAna210.txt",
#        "hsg_SpotD_crystal16_a00_HAna211.txt",
#        "hsg_SpotD_crystal16_a00_HAna212.txt"
#    ],
#    "nir_lambda": "820.9918",
#    "nir_pola": "00",
#    "nir_polg": "0",
#    "nir_power": "100.0",
#    "pulseEnergies": {
#        "mean": 2.166227272727273,
#        "std": 0.09116034717691343
#    },
#    "pyroVoltage": {
#        "mean": 0.139516994205123,
#        "std": 0.0068074240510383015
#    },
#    "rotatorAngle": 67.49999633788168,
#    "sample_Temp": "58",
#    "sample_name": "L001218.C3",
#    "series": "SpotD_16_00",
#    "slits": "60",
#    "spec_step": "",
#    "window_trans": 0.92,
#    "y_max": 2,
#    "y_min": 1
#}
#
#
#
#
#
#
#
#
#
#
#
#
#
#
#
#
#
#
#
#
#
#
#
#
#
#
Wavelength,Signal,error
nm,arb. u.,arb.u.
Wavelength,SpotD_16_00,error
761.200217,-0.175000,0.073951
761.233859,-0.025000,0.073951
761.267500,0.275000,0.041458
761.301141,0.700000,0.725431
761.334781,0.350000,0.082916
761.368422,-0.200000,0.079057
761.402062,0.575000,0.263095
761.435702,-0.250000,0.055902
761.469342,0.000000,0.035355
761.502981,-0.000000,0.093541
761.536620,0.025000,0.113880
761.570259,0.450000,0.391312
761.603898,-0.300000,0.061237
761.637537,-0.200000,0.111803
761.671175,-0.125000,0.129301
761.704813,0.150000,0.147902
761.738451,0.200000,0.106066
761.772088,0.100000,0.061237
761.805726,-0.200000,0.093541
761.839363,-0.175000,0.041458
761.873000,-0.325000,0.041458
761.906636,-0.125000,0.054486
761.940273,-0.050000,0.075000
761.973909,0.025000,0.064952
762.007545,0.050000,0.114564
762.041180,-0.175000,0.081968
762.074816,0.450000,0.207666
762.108451,0.525000,0.290205
762.142086,0.775000,0.334244
762.175720,0.150000,0.055902
762.209355,0.400000,0.136931
762.242989,0.100000,0.035355
762.276623,0.125000,0.147373
762.310257,0.350000,0.317214
762.343890,-0.125000,0.194856
762.377524,-0.225000,0.054486
762.411157,0.025000,0.064952
762.444789,0.000000,0.150000
762.478422,-0.025000,0.073951
762.512054,-0.075000,0.064952
762.545686,-0.025000,0.041458
762.579318,0.250000,0.103078
762.612950,0.675000,0.219018
762.646581,-0.275000,0.054486
762.680212,-0.050000,0.055902
762.713843,0.100000,0.145774
762.747474,0.100000,0.061237
762.781104,-0.025000,0.073951
762.814734,-0.350000,0.055902
762.848364,-0.375000,0.054486
762.881994,-0.125000,0.096014
762.915623,0.025000,0.096014
762.949252,0.100000,0.093541
762.982881,0.350000,0.075000
763.016510,0.125000,0.081968
763.050139,0.025000,0.041458
763.083767,0.100000,0.127475
763.117395,0.150000,0.090139
763.151023,0.125000,0.054486
763.184650,0.250000,0.134629
763.218277,-0.200000,0.050000
763.251904,0.050000,0.227761
763.285531,-0.150000,0.075000
763.319158,0.150000,0.134629
763.352784,0.075000,0.163459
763.386410,0.300000,0.237171
763.420036,0.625000,0.308980
763.453661,0.066667,0.142887
763.487287,-0.250000,0.160078
763.520912,-1.150000,0.134629
763.554537,0.025000,0.258300
763.588161,0.075000,0.119242
763.621786,-0.150000,0.055902
763.655410,0.050000,0.082916
763.689034,-0.250000,0.103078
763.722657,0.100000,0.050000
763.756281,0.450000,0.055902
763.789904,-0.150000,0.082916
763.823527,0.075000,0.163459
763.857150,-0.175000,0.041458
763.890772,-0.400000,0.035355
763.924394,-0.025000,0.054486
763.958016,0.150000,0.134629
763.991638,0.100000,0.111803
764.025260,0.075000,0.021651
764.058881,0.075000,0.021651
764.092502,-0.325000,0.054486
764.126123,0.575000,0.326678
764.159743,0.000000,0.061237
764.193363,0.000000,0.127475
764.226983,0.025000,0.113880
764.260603,0.025000,0.041458
764.294223,-0.025000,0.054486
764.327842,0.000000,0.061237
764.361461,0.100000,0.035355
764.395080,0.125000,0.119242
764.428699,-0.100000,0.176777
764.462317,-0.075000,0.073951
764.495935,0.100000,0.262202
764.529553,0.350000,0.055902
764.563170,0.250000,0.075000
764.596788,0.275000,0.143069
764.630405,-0.075000,0.089268
764.664022,-0.225000,0.113880
764.697638,0.150000,0.055902
764.731255,0.050000,0.147902
764.764871,-0.025000,0.021651
764.798487,-0.175000,0.021651
764.832103,0.125000,0.283670
764.865718,0.100000,0.106066
764.899333,0.000000,0.070711
764.932948,-0.075000,0.021651
764.966563,0.075000,0.188331
765.000177,-0.025000,0.081968
765.033792,-0.025000,0.096014
765.067406,-0.050000,0.090139
765.101019,-0.075000,0.041458
765.134633,-0.325000,0.198037
765.168246,-0.025000,0.041458
765.201859,0.000000,0.079057
765.235472,0.050000,0.082916
765.269084,0.125000,0.041458
765.302697,0.025000,0.167239
765.336309,0.325000,0.290205
765.369920,0.775000,0.300780
765.403532,-0.025000,0.073951
765.437143,-0.175000,0.054486
765.470754,0.350000,0.134629
765.504365,0.075000,0.064952
765.537976,0.150000,0.090139
765.571586,-0.150000,0.129904
765.605196,-0.275000,0.081968
765.638806,-0.100000,0.035355
765.672416,0.175000,0.108253
765.706025,0.250000,0.160078
765.739634,0.225000,0.054486
765.773243,0.100000,0.035355
765.806851,0.100000,0.035355
765.840460,0.675000,0.619854
765.874068,-0.025000,0.089268
765.907676,-0.200000,0.035355
765.941284,0.275000,0.330483
765.974891,-0.050000,0.090139
766.008498,0.125000,0.170935
766.042105,0.225000,0.054486
766.075712,-0.050000,0.163936
766.109318,-0.500000,0.127475
766.142924,-0.025000,0.073951
766.176530,-0.075000,0.163459
766.210136,-0.225000,0.096014
766.243741,0.450000,0.347311
766.277347,-0.150000,0.043301
766.310951,-0.150000,0.082916
766.344556,0.075000,0.073951
766.378161,0.525000,0.174553
766.411765,-0.075000,0.129301
766.445369,-0.050000,0.055902
766.478973,-0.025000,0.124373
766.512576,-0.050000,0.082916
766.546179,0.025000,0.108253
766.579782,0.025000,0.163459
766.613385,0.200000,0.086603
766.646988,-0.150000,0.075000
766.680590,0.075000,0.081968
766.714192,0.525000,0.108253
766.747794,0.150000,0.134629
766.781395,0.350000,0.103078
766.814996,0.025000,0.194856
766.848597,-0.025000,0.108253
766.882198,0.250000,0.134629
766.915799,0.175000,0.155624
766.949399,0.125000,0.108253
766.982999,-0.025000,0.041458
767.016599,-0.150000,0.055902
767.050198,0.250000,0.248747
767.083798,0.200000,0.127475
767.117397,0.150000,0.134629
767.150996,-0.200000,0.093541
767.184594,-0.475000,0.054486
767.218193,0.400000,0.385681
767.251791,-0.100000,0.079057
767.285389,0.100000,0.145774
767.318986,-0.050000,0.043301
767.352583,0.200000,0.111803
767.386181,0.025000,0.041458
767.419777,-0.100000,0.035355
767.453374,0.325000,0.124373
767.486970,-0.150000,0.152069
767.520567,0.375000,0.188331
767.554162,0.300000,0.183712
767.587758,0.025000,0.054486
767.621353,0.225000,0.021651
767.654949,0.125000,0.054486
767.688543,0.100000,0.093541
767.722138,-0.050000,0.114564
767.755732,0.175000,0.129301
767.789327,-0.300000,0.061237
767.822921,-0.375000,0.064952
767.856514,-0.175000,0.081968
767.890108,0.375000,0.143069
767.923701,0.275000,0.108253
767.957294,0.450000,0.389711
767.990886,0.300000,0.093541
768.024479,0.050000,0.082916
768.058071,0.050000,0.103078
768.091663,-0.150000,0.055902
768.125255,-0.050000,0.075000
768.158846,0.125000,0.073951
768.192437,-0.350000,0.055902
768.226028,-0.050000,0.152069
768.259619,-0.075000,0.064952
768.293209,-0.025000,0.108253
768.326799,0.100000,0.050000
768.360389,-0.125000,0.096014
768.393979,0.425000,0.167239
768.427568,0.150000,0.227761
768.461158,-0.175000,0.041458
768.494747,-0.100000,0.050000
768.528335,0.100000,0.176777
768.561924,0.225000,0.073951
768.595512,0.400000,0.215058
768.629100,0.125000,0.041458
768.662688,0.250000,0.235850
768.696275,-0.000000,0.145774
768.729862,-0.100000,0.061237
768.763449,0.025000,0.081968
768.797036,-0.025000,0.188331
768.830623,0.075000,0.021651
768.864209,-0.075000,0.108253
768.897795,0.050000,0.025000
768.931381,0.400000,0.180278
768.964966,0.375000,0.313000
768.998551,0.275000,0.041458
769.032136,-0.075000,0.064952
769.065721,-0.175000,0.041458
769.099305,-0.125000,0.073951
769.132890,-0.025000,0.108253
769.166474,0.250000,0.207666
769.200057,-0.150000,0.055902
769.233641,0.050000,0.134629
769.267224,0.125000,0.081968
769.300807,-0.225000,0.054486
769.334390,-0.025000,0.119242
769.367972,0.150000,0.043301
769.401555,0.025000,0.170935
769.435137,-0.300000,0.035355
769.468718,0.025000,0.054486
769.502300,-0.050000,0.114564
769.535881,-0.150000,0.075000
769.569462,-0.325000,0.124373
769.603043,-0.175000,0.096014
769.636623,0.325000,0.207289
769.670204,-0.125000,0.089268
769.703784,0.250000,0.090139
769.737364,0.200000,0.117260
769.770943,0.250000,0.182003
769.804522,0.150000,0.265754
769.838101,-0.225000,0.089268
769.871680,-0.375000,0.096014
769.905259,-0.300000,0.127475
769.938837,0.125000,0.147373
769.972415,0.050000,0.134629
770.005993,0.000000,0.070711
770.039570,0.300000,0.093541
770.073147,0.050000,0.055902
770.106724,0.000000,0.093541
770.140301,0.425000,0.235518
770.173878,0.200000,0.035355
770.207454,-0.075000,0.054486
770.241030,0.200000,0.291548
770.274606,0.025000,0.064952
770.308181,0.325000,0.064952
770.341757,-0.075000,0.041458
770.375332,0.225000,0.170935
770.408906,0.025000,0.041458
770.442481,-0.250000,0.103078
770.476055,-0.225000,0.041458
770.509629,0.175000,0.073951
770.543203,-0.125000,0.041458
770.576776,-0.075000,0.155624
770.610350,0.025000,0.021651
770.643923,-0.125000,0.064952
770.677495,0.075000,0.054486
770.711068,0.175000,0.041458
770.744640,0.000000,0.050000
770.778212,-0.125000,0.089268
770.811784,-0.050000,0.108972
770.845356,-0.025000,0.021651
770.878927,0.450000,0.143614
770.912498,0.025000,0.041458
770.946069,-0.100000,0.136931
770.979639,0.050000,0.025000
771.013209,0.050000,0.075000
771.046779,-0.575000,0.054486
771.080349,-0.125000,0.064952
771.113919,-0.025000,0.167239
771.147488,0.025000,0.102317
771.181057,0.100000,0.127475
771.214626,0.075000,0.021651
771.248194,0.350000,0.175000
771.281762,0.175000,0.326678
771.315330,0.250000,0.160078
771.348898,0.150000,0.090139
771.382465,-0.025000,0.194856
771.416033,0.050000,0.147902
771.449600,0.575000,0.207289
771.483166,-0.075000,0.089268
771.516733,0.525000,0.326678
771.550299,0.500000,0.325960
771.583865,0.275000,0.240767
771.617431,0.300000,0.176777
771.650996,0.150000,0.025000
771.684562,0.000000,0.093541
771.718127,-0.025000,0.073951
771.751691,0.275000,0.143069
771.785256,0.225000,0.281458
771.818820,-0.175000,0.041458
771.852384,0.050000,0.043301
771.885948,-0.125000,0.113880
771.919511,-0.175000,0.124373
771.953074,0.250000,0.163936
771.986637,0.375000,0.221853
772.020200,0.250000,0.160078
772.053762,0.075000,0.124373
772.087325,-0.025000,0.081968
772.120887,0.150000,0.103078
772.154448,0.300000,0.127475
772.188010,-0.050000,0.103078
772.221571,-0.100000,0.106066
772.255132,0.150000,0.103078
772.288692,0.275000,0.296595
772.322253,0.700000,0.511126
772.355813,0.275000,0.499218
772.389373,-0.125000,0.386288
772.422933,0.125000,0.265460
772.456492,0.300000,0.176777
772.490051,0.025000,0.041458
772.523610,0.075000,0.064952
772.557169,-0.075000,0.113880
772.590727,-0.050000,0.192029
772.624285,0.050000,0.103078
772.657843,-0.025000,0.064952
772.691401,-0.375000,0.129301
772.724958,-0.075000,0.054486
772.758515,0.150000,0.025000
772.792072,0.175000,0.096014
772.825629,-0.125000,0.041458
772.859185,0.275000,0.216145
772.892741,-0.150000,0.075000
772.926297,0.125000,0.129301
772.959853,-0.100000,0.070711
772.993408,-0.475000,0.119242
773.026963,-0.100000,0.093541
773.060518,0.225000,0.129301
773.094073,-0.025000,0.073951
773.127627,0.050000,0.103078
773.161181,-0.025000,0.155624
773.194735,0.325000,0.170935
773.228289,0.425000,0.240767
773.261842,1.175000,0.490376
773.295395,0.275000,0.102317
773.328948,0.350000,0.195256
773.362500,0.250000,0.090139
773.396053,-0.025000,0.054486
773.429605,0.000000,0.093541
773.463157,-0.075000,0.041458
773.496708,0.475000,0.167239
773.530260,-0.000000,0.203101
773.563811,0.150000,0.256174
773.597361,0.400000,0.206155
773.630912,0.300000,0.154110
773.664462,0.250000,0.082916
773.698012,-0.150000,0.143614
773.731562,0.275000,0.081968
773.765111,-0.025000,0.102317
773.798661,-0.025000,0.096014
773.832210,0.025000,0.054486
773.865758,0.075000,0.054486
773.899307,0.100000,0.122474
773.932855,0.200000,0.093541
773.966403,0.025000,0.089268
773.999951,-0.025000,0.054486
774.033498,0.075000,0.073951
774.067046,0.500000,0.322102
774.100593,0.150000,0.075000
774.134139,0.300000,0.100000
774.167686,-0.075000,0.081968
774.201232,0.150000,0.025000
774.234778,0.250000,0.075000
774.268324,0.050000,0.090139
774.301869,-0.050000,0.055902
774.335414,-0.275000,0.108253
774.368959,0.100000,0.122474
774.402504,0.100000,0.035355
774.436048,-0.225000,0.021651
774.469592,0.025000,0.073951
774.503136,0.125000,0.155624
774.536680,0.100000,0.086603
774.570223,0.550000,0.391312
774.603766,0.175000,0.054486
774.637309,0.100000,0.093541
774.670852,0.050000,0.075000
774.704394,0.525000,0.326678
774.737936,-0.250000,0.025000
774.771478,0.300000,0.254951
774.805020,0.075000,0.124373
774.838561,-0.100000,0.035355
774.872102,0.300000,0.145774
774.905643,0.150000,0.103078
774.939183,0.525000,0.397453
774.972724,0.275000,0.213234
775.006264,0.525000,0.345281
775.039804,1.275000,0.270127
775.073343,0.400000,0.141421
775.106882,0.700000,0.136931
775.140421,0.450000,0.246221
775.173960,0.075000,0.477461
775.207499,0.300000,0.252488
775.241037,0.025000,0.119242
775.274575,-0.075000,0.054486
775.308113,-0.150000,0.090139
775.341650,0.200000,0.176777
775.375187,0.450000,0.235850
775.408724,-0.150000,0.055902
775.442261,0.025000,0.170935
775.475798,-0.075000,0.041458
775.509334,0.250000,0.075000
775.542870,-0.025000,0.096014
775.576405,0.200000,0.183712
775.609941,0.200000,0.122474
775.643476,0.250000,0.167705
775.677011,-0.075000,0.170935
775.710546,0.200000,0.111803
775.744080,0.325000,0.194856
775.777614,0.175000,0.134048
775.811148,0.075000,0.213234
775.844682,-0.100000,0.079057
775.878215,-0.250000,0.075000
775.911748,0.150000,0.108972
775.945281,0.000000,0.093541
775.978814,-0.225000,0.064952
776.012346,-0.225000,0.119242
776.045878,-0.050000,0.082916
776.079410,0.325000,0.081968
776.112941,0.700000,0.322102
776.146473,-0.050000,0.114564
776.180004,-0.025000,0.041458
776.213535,0.500000,0.212132
776.247065,0.000000,0.093541
776.280595,0.025000,0.073951
776.314125,0.400000,0.070711
776.347655,-0.025000,0.021651
776.381185,-0.025000,0.155624
776.414714,0.575000,0.267804
776.448243,-0.025000,0.081968
776.481772,0.075000,0.096014
776.515300,-0.075000,0.073951
776.548828,0.000000,0.061237
776.582356,0.175000,0.167239
776.615884,0.275000,0.188331
776.649411,0.200000,0.061237
776.682938,-0.025000,0.054486
776.716465,-0.025000,0.073951
776.749992,0.675000,0.374792
776.783518,0.350000,0.143614
776.817044,0.550000,0.075000
776.850570,0.725000,0.320887
776.884096,1.125000,0.108253
776.917621,1.100000,0.395285
776.951146,0.850000,0.432290
776.984671,0.325000,0.267804
777.018196,0.450000,0.248747
777.051720,-0.125000,0.073951
777.085244,0.100000,0.079057
777.118768,-0.475000,0.041458
777.152292,0.100000,0.061237
777.185815,0.425000,0.238157
777.219338,0.025000,0.041458
777.252861,-0.100000,0.086603
777.286383,-0.075000,0.054486
777.319905,-0.075000,0.096014
777.353427,0.325000,0.021651
777.386949,0.200000,0.070711
777.420471,0.625000,0.369755
777.453992,0.000000,0.035355
777.487513,0.375000,0.134048
777.521033,-0.275000,0.089268
777.554554,-0.150000,0.055902
777.588074,0.000000,0.035355
777.621594,0.350000,0.114564
777.655114,0.250000,0.103078
777.688633,0.275000,0.119242
777.722152,0.300000,0.122474
777.755671,0.050000,0.055902
777.789190,0.550000,0.389711
777.822708,-0.225000,0.073951
777.856226,0.325000,0.230149
777.889744,0.300000,0.093541
777.923261,0.050000,0.043301
777.956779,0.225000,0.143069
777.990296,0.525000,0.151554
778.023812,0.200000,0.122474
778.057329,-0.100000,0.111803
778.090845,0.075000,0.054486
778.124361,-0.025000,0.096014
778.157877,0.050000,0.082916
778.191392,0.100000,0.070711
778.224908,0.075000,0.054486
778.258423,0.150000,0.043301
778.291937,-0.100000,0.070711
778.325452,0.100000,0.050000
778.358966,0.050000,0.082916
778.392480,-0.075000,0.151554
778.425993,0.125000,0.124373
778.459507,0.375000,0.178098
778.493020,0.475000,0.096014
778.526533,0.050000,0.025000
778.560045,0.150000,0.235850
778.593558,0.525000,0.465531
778.627070,0.550000,0.175000
778.660582,1.975000,0.730903
778.694093,1.775000,0.537791
778.727605,0.800000,0.203101
778.761116,0.600000,0.262202
778.794626,0.100000,0.169558
778.828137,0.050000,0.025000
778.861647,0.025000,0.096014
778.895157,0.300000,0.176777
778.928667,0.125000,0.113880
778.962176,0.025000,0.119242
778.995686,0.000000,0.070711
779.029194,0.400000,0.117260
779.062703,0.050000,0.055902
779.096212,0.300000,0.203101
779.129720,0.400000,0.145774
779.163228,0.400000,0.276134
779.196735,-0.025000,0.021651
779.230243,-0.625000,0.108253
779.263750,0.025000,0.073951
779.297257,0.125000,0.041458
779.330763,0.025000,0.054486
779.364269,-0.050000,0.025000
779.397776,0.050000,0.025000
779.431281,0.425000,0.265460
779.464787,-0.075000,0.064952
779.498292,-0.050000,0.082916
779.531797,0.075000,0.021651
779.565302,0.075000,0.054486
779.598806,0.500000,0.276134
779.632311,0.425000,0.147373
779.665814,0.450000,0.277263
779.699318,-0.100000,0.093541
779.732822,0.175000,0.081968
779.766325,0.150000,0.043301
779.799828,0.175000,0.124373
779.833330,0.550000,0.427931
779.866833,-0.100000,0.035355
779.900335,0.125000,0.064952
779.933837,0.175000,0.163459
779.967338,0.025000,0.073951
780.000840,-0.125000,0.089268
780.034341,0.100000,0.183712
780.067841,0.000000,0.050000
780.101342,-0.175000,0.073951
780.134842,0.300000,0.117260
780.168342,0.100000,0.203101
780.201842,0.200000,0.050000
780.235341,0.375000,0.119242
780.268841,0.050000,0.075000
780.302340,-0.200000,0.035355
780.335838,0.250000,0.125000
780.369337,0.000000,0.035355
780.402835,0.075000,0.073951
780.436333,1.000000,0.450000
780.469830,1.175000,0.288043
780.503328,2.425000,0.566100
780.536825,2.350000,0.505594
780.570322,1.350000,0.283945
780.603818,0.500000,0.344601
780.637315,0.775000,0.702117
780.670811,0.075000,0.201168
780.704306,0.125000,0.081968
780.737802,0.400000,0.318198
780.771297,-0.000000,0.093541
780.804792,0.250000,0.251247
780.838287,0.275000,0.304908
780.871781,-0.150000,0.055902
780.905276,0.175000,0.147373
780.938770,-0.200000,0.050000
780.972263,0.175000,0.255869
781.005757,0.075000,0.041458
781.039250,0.125000,0.054486
781.072743,0.250000,0.025000
781.106235,0.050000,0.195256
781.139728,0.175000,0.198037
781.173220,0.100000,0.079057
781.206712,0.225000,0.041458
781.240203,0.050000,0.075000
781.273694,0.375000,0.296595
781.307185,0.200000,0.141421
781.340676,0.075000,0.134048
781.374167,0.000000,0.150000
781.407657,0.325000,0.089268
781.441147,-0.025000,0.134048
781.474636,0.125000,0.041458
781.508126,0.125000,0.054486
781.541615,0.325000,0.198037
781.575104,0.325000,0.224653
781.608593,0.300000,0.176777
781.642081,-0.025000,0.108253
781.675569,-0.100000,0.061237
781.709057,0.075000,0.073951
781.742544,0.200000,0.154110
781.776032,0.125000,0.240767
781.809519,0.125000,0.073951
781.843006,0.350000,0.055902
781.876492,0.300000,0.122474
781.909978,0.200000,0.035355
781.943464,0.225000,0.089268
781.976950,0.050000,0.075000
782.010435,0.075000,0.081968
782.043921,0.050000,0.082916
782.077406,0.300000,0.173205
782.110890,0.150000,0.055902
782.144375,-0.125000,0.113880
782.177859,0.300000,0.127475
782.211343,0.425000,0.089268
782.244826,0.900000,0.437321
782.278309,2.300000,0.972754
782.311792,1.925000,0.509135
782.345275,3.625000,0.808065
782.378758,4.200000,0.693722
782.412240,1.050000,0.207666
782.445722,0.175000,0.119242
782.479204,0.725000,0.163459
782.512685,-0.250000,0.043301
782.546166,0.250000,0.114564
782.579647,0.275000,0.210283
782.613128,-0.025000,0.089268
782.646608,0.000000,0.035355
782.680088,0.350000,0.043301
782.713568,0.025000,0.138632
782.747048,0.175000,0.089268
782.780527,0.000000,0.183712
782.814006,-0.125000,0.113880
782.847485,-0.075000,0.073951
782.880963,0.150000,0.114564
782.914442,-0.050000,0.082916
782.947920,0.025000,0.054486
782.981397,0.175000,0.108253
783.014875,0.050000,0.043301
783.048352,0.125000,0.138632
783.081829,0.125000,0.073951
783.115306,0.450000,0.343693
783.148782,-0.075000,0.064952
783.182258,-0.300000,0.061237
783.215734,0.125000,0.054486
783.249209,-0.275000,0.089268
783.282685,0.325000,0.134048
783.316160,0.175000,0.134048
783.349635,0.050000,0.055902
783.383109,-0.175000,0.089268
783.416583,0.200000,0.136931
783.450057,0.050000,0.125000
783.483531,-0.175000,0.041458
783.517004,0.125000,0.174553
783.550477,0.225000,0.113880
783.583950,0.325000,0.089268
783.617423,0.400000,0.127475
783.650895,0.250000,0.055902
783.684367,0.350000,0.201556
783.717839,-0.475000,0.129301
783.751311,-0.150000,0.114564
783.784782,0.050000,0.147902
783.818253,0.350000,0.125000
783.851724,-0.000000,0.106066
783.885194,-0.050000,0.075000
783.918665,0.325000,0.283670
783.952134,0.425000,0.224653
783.985604,0.475000,0.296595
784.019074,0.175000,0.108253
784.052543,0.875000,0.298695
784.086012,0.933333,0.227303
784.119480,2.566667,0.159426
784.152948,5.100000,0.500000
784.186416,6.050000,0.922293
784.219884,4.275000,0.552692
784.253352,2.450000,0.469707
784.286819,1.200000,0.480885
784.320286,0.275000,0.210283
784.353753,0.300000,0.106066
784.387219,0.200000,0.035355
784.420685,0.175000,0.096014
784.454151,0.000000,0.061237
784.487617,-0.050000,0.090139
784.521082,0.200000,0.122474
784.554547,0.625000,0.318934
784.588012,0.200000,0.127475
784.621477,0.100000,0.093541
784.654941,0.250000,0.108972
784.688405,0.175000,0.089268
784.721869,0.175000,0.113880
784.755332,0.075000,0.178098
784.788795,0.250000,0.125000
784.822258,0.275000,0.073951
784.855721,0.325000,0.198037
784.889183,0.000000,0.070711
784.922646,0.375000,0.198037
784.956107,0.250000,0.152069
784.989569,0.025000,0.108253
785.023030,-0.200000,0.050000
785.056491,0.150000,0.175000
785.089952,0.275000,0.163459
785.123413,0.125000,0.147373
785.156873,-0.200000,0.117260
785.190333,0.100000,0.061237
785.223792,0.150000,0.043301
785.257252,0.075000,0.054486
785.290711,-0.050000,0.114564
785.324170,-0.075000,0.021651
785.357629,0.000000,0.093541
785.391087,0.125000,0.054486
785.424545,0.075000,0.041458
785.458003,0.475000,0.326678
785.491460,0.050000,0.055902
785.524918,0.250000,0.160078
785.558375,0.375000,0.178098
785.591831,0.225000,0.054486
785.625288,0.025000,0.073951
785.658744,0.250000,0.160078
785.692200,-0.075000,0.073951
785.725655,0.000000,0.061237
785.759111,0.300000,0.035355
785.792566,-0.200000,0.070711
785.826021,0.275000,0.174553
785.859475,-0.175000,0.064952
785.892930,0.450000,0.103078
785.926384,1.725000,0.292350
785.959837,4.250000,0.698659
785.993291,5.650000,1.042533
786.026744,6.025000,0.456036
786.060197,6.425000,0.906487
786.093649,2.225000,0.580275
786.127102,0.675000,0.253414
786.160554,0.600000,0.242384
786.194006,-0.150000,0.043301
786.227457,0.200000,0.209165
786.260909,0.725000,0.434993
786.294360,0.200000,0.093541
786.327810,-0.150000,0.075000
786.361261,0.150000,0.025000
786.394711,0.225000,0.167239
786.428161,0.000000,0.035355
786.461611,0.200000,0.050000
786.495060,0.350000,0.195256
786.528509,-0.075000,0.073951
786.561958,0.175000,0.073951
786.595407,0.125000,0.138632
786.628855,0.475000,0.163459
786.662303,0.250000,0.246221
786.695751,0.100000,0.136931
786.729198,0.475000,0.194856
786.762645,0.125000,0.021651
786.796092,0.325000,0.274716
786.829539,0.100000,0.154110
786.862985,-0.200000,0.035355
786.896431,0.450000,0.256174
786.929877,0.250000,0.075000
786.963323,0.050000,0.043301
786.996768,0.125000,0.073951
787.030213,0.025000,0.021651
787.063658,-0.150000,0.055902
787.097102,0.075000,0.124373
787.130547,-0.225000,0.064952
787.163991,0.175000,0.330483
787.197434,-0.125000,0.102317
787.230878,0.800000,0.127475
787.264321,0.175000,0.041458
787.297764,0.150000,0.134629
787.331206,0.250000,0.103078
787.364648,0.400000,0.136931
787.398090,0.250000,0.025000
787.431532,0.175000,0.124373
787.464974,0.025000,0.064952
787.498415,-0.325000,0.021651
787.531856,0.025000,0.108253
787.565296,0.450000,0.270416
787.598737,0.300000,0.061237
787.632177,0.125000,0.021651
787.665617,0.100000,0.154110
787.699056,0.275000,0.210283
787.732496,-0.325000,0.021651
787.765935,0.925000,0.167239
787.799373,2.675000,0.646505
787.832812,8.700000,0.410792
787.866250,8.400000,0.831414
787.899688,10.975000,1.209532
787.933126,7.175000,0.815763
787.966563,2.725000,0.633813
788.000000,1.000000,0.362284
788.033437,0.300000,0.262202
788.066873,0.125000,0.054486
788.100310,0.000000,0.061237
788.133746,0.300000,0.176777
788.167181,0.125000,0.108253
788.200617,0.400000,0.289396
788.234052,0.500000,0.145774
788.267487,-0.050000,0.129904
788.300921,0.075000,0.073951
788.334356,0.225000,0.113880
788.367790,0.175000,0.096014
788.401224,0.825000,0.634798
788.434657,1.325000,0.762705
788.468090,0.100000,0.093541
788.501523,0.133333,0.113652
788.534956,0.166667,0.088976
788.568389,0.233333,0.113652
788.601821,0.166667,0.020412
788.635253,0.366667,0.167083
788.668684,0.100000,0.093541
788.702116,0.075000,0.108253
788.735547,0.075000,0.155624
788.768977,0.175000,0.113880
788.802408,0.375000,0.073951
788.835838,0.400000,0.127475
788.869268,0.275000,0.081968
788.902698,0.200000,0.117260
788.936127,-0.075000,0.041458
788.969556,0.025000,0.119242
789.002985,0.175000,0.081968
789.036414,0.100000,0.061237
789.069842,0.225000,0.216145
789.103270,0.675000,0.412879
789.136698,0.025000,0.041458
789.170125,0.175000,0.096014
789.203552,0.125000,0.102317
789.236979,0.550000,0.188746
789.270406,0.000000,0.000000
789.303832,0.150000,0.134629
789.337258,0.450000,0.309233
789.370684,0.150000,0.075000
789.404110,0.075000,0.129301
789.437535,0.400000,0.106066
789.470960,0.175000,0.096014
789.504385,0.125000,0.170935
789.537809,0.300000,0.209165
789.571233,0.775000,0.501716
789.604657,0.650000,0.178536
789.638081,2.875000,0.348882
789.671504,6.175000,0.573776
789.704927,9.750000,0.328824
789.738350,13.800000,1.068293
789.771772,11.366667,0.872019
789.805195,6.750000,1.005298
789.838617,1.450000,0.508060
789.872038,0.775000,0.434993
789.905460,-0.600000,0.150000
789.938881,0.050000,0.103078
789.972302,0.050000,0.043301
790.005722,0.250000,0.143614
790.039143,-0.125000,0.021651
790.072563,-0.050000,0.055902
790.105982,0.100000,0.000000
790.139402,0.775000,0.330483
790.172821,-0.275000,0.041458
790.206240,0.225000,0.096014
790.239658,0.225000,0.124373
790.273077,0.150000,0.129904
790.306495,0.200000,0.203101
790.339913,0.250000,0.108972
790.373330,0.300000,0.145774
790.406747,0.200000,0.117260
790.440164,-0.125000,0.108253
790.473581,0.150000,0.103078
790.506997,0.050000,0.055902
790.540414,-0.100000,0.093541
790.573829,0.250000,0.103078
790.607245,0.200000,0.093541
790.640660,-0.125000,0.041458
790.674075,0.200000,0.127475
790.707490,0.275000,0.151554
790.740904,0.425000,0.096014
790.774319,0.625000,0.204252
790.807733,0.350000,0.201556
790.841146,0.175000,0.279229
790.874560,0.175000,0.255869
790.907973,0.300000,0.150000
790.941385,0.325000,0.102317
790.974798,-0.025000,0.064952
791.008210,0.300000,0.183712
791.041622,0.100000,0.117260
791.075034,0.300000,0.117260
791.108445,0.300000,0.145774
791.141856,0.200000,0.086603
791.175267,-0.125000,0.081968
791.208678,0.100000,0.061237
791.242088,0.375000,0.270127
791.275498,0.175000,0.064952
791.308908,0.350000,0.025000
791.342317,0.550000,0.175000
791.375726,0.300000,0.035355
791.409135,0.300000,0.127475
791.442544,0.200000,0.344601
791.475952,1.575000,0.610712
791.509360,3.875000,0.703007
791.542768,11.425000,1.292466
791.576176,21.066667,0.460072
791.609583,32.100000,1.501666
791.642990,23.350000,0.832541
791.676396,12.200000,0.929382
791.709803,3.200000,0.379144
791.743209,0.675000,0.248433
791.776615,0.700000,0.237171
791.810020,0.225000,0.041458
791.843425,0.325000,0.073951
791.876830,-0.025000,0.207289
791.910235,0.825000,0.194856
791.943640,0.400000,0.467707
791.977044,-0.100000,0.122474
792.010448,0.050000,0.082916
792.043851,0.100000,0.150000
792.077254,-0.125000,0.201168
792.110658,0.250000,0.305164
792.144060,0.075000,0.054486
792.177463,0.000000,0.035355
792.210865,0.100000,0.117260
792.244267,0.000000,0.093541
792.277668,0.225000,0.124373
792.311070,0.075000,0.096014
792.344471,0.800000,0.404660
792.377872,0.225000,0.021651
792.411272,0.450000,0.251247
792.444672,0.050000,0.055902
792.478072,0.425000,0.108253
792.511472,0.025000,0.108253
792.544871,0.375000,0.096014
792.578271,-0.100000,0.035355
792.611669,0.150000,0.075000
792.645068,0.375000,0.054486
792.678466,-0.100000,0.244949
792.711864,0.000000,0.061237
792.745262,0.025000,0.096014
792.778659,-0.025000,0.096014
792.812056,0.050000,0.114564
792.845453,0.650000,0.361421
792.878850,0.025000,0.054486
792.912246,0.550000,0.160078
792.945642,0.150000,0.147902
792.979038,0.425000,0.188331
793.012433,0.025000,0.054486
793.045829,0.050000,0.043301
793.079223,-0.175000,0.054486
793.112618,-0.175000,0.041458
793.146012,0.400000,0.187083
793.179406,0.000000,0.035355
793.212800,0.175000,0.113880
793.246194,0.275000,0.096014
793.279587,0.175000,0.064952
793.312980,0.775000,0.265460
793.346373,0.333333,0.163299
793.379765,2.775000,0.531948
793.413157,9.575000,1.347857
793.446549,17.200000,0.940744
793.479940,34.300000,0.736546
793.513332,30.666667,0.784485
793.546723,17.466667,0.987632
793.580113,5.500000,0.932068
793.613504,1.400000,0.480885
793.646894,0.025000,0.119242
793.680284,0.000000,0.070711
793.713673,0.275000,0.143069
793.747062,0.300000,0.183712
793.780451,0.125000,0.102317
793.813840,0.400000,0.154110
793.847228,0.075000,0.081968
793.880617,0.175000,0.073951
793.914004,0.350000,0.182003
793.947392,-0.125000,0.216145
793.980779,0.275000,0.184983
794.014166,-0.200000,0.035355
794.047553,0.550000,0.350892
794.080940,0.425000,0.258300
794.114326,0.075000,0.143069
794.147712,0.050000,0.055902
794.181097,0.000000,0.050000
794.214483,0.525000,0.102317
794.247868,0.525000,0.138632
794.281252,0.175000,0.129301
794.314637,-0.025000,0.216145
794.348021,0.350000,0.256174
794.381405,0.125000,0.124373
794.414788,0.600000,0.375832
794.448172,0.150000,0.147902
794.481555,0.325000,0.263095
794.514938,0.225000,0.143069
794.548320,-0.125000,0.159589
794.581702,0.075000,0.073951
794.615084,0.150000,0.075000
794.648466,0.400000,0.070711
794.681847,0.200000,0.070711
794.715228,0.075000,0.476150
794.748609,0.400000,0.470372
794.781990,0.100000,0.325960
794.815370,1.150000,0.241091
794.848750,0.725000,0.556074
794.882129,-0.275000,0.054486
794.915509,0.125000,0.096014
794.948888,-0.425000,0.102317
794.982267,0.450000,0.225000
795.015645,0.175000,0.073951
795.049023,0.475000,0.129301
795.082401,-0.075000,0.021651
795.115779,0.300000,0.297909
795.149156,0.075000,0.113880
795.182534,0.600000,0.093541
795.215910,0.950000,0.216506
795.249287,2.275000,0.644569
795.282663,10.025000,1.238636
795.316039,19.833333,1.581666
795.349415,45.050000,1.623461
795.382790,60.500000,2.480171
795.416165,48.625000,1.916173
795.449540,21.000000,2.069722
795.482915,4.800000,0.593717
795.516289,0.850000,0.235850
795.549663,0.600000,0.187083
795.583037,-0.025000,0.054486
795.616410,0.875000,0.615807
795.649783,0.000000,0.183712
795.683156,0.100000,0.106066
795.716529,0.125000,0.041458
795.749901,0.050000,0.178536
795.783273,0.275000,0.096014
795.816645,-0.375000,0.064952
795.850016,0.075000,0.064952
795.883387,0.625000,0.129301
795.916758,0.250000,0.055902
795.950129,0.150000,0.175000
795.983499,-0.100000,0.070711
796.016869,0.050000,0.043301
796.050239,0.125000,0.276981
796.083608,0.375000,0.240767
796.116977,0.250000,0.160078
796.150346,-0.275000,0.054486
796.183714,0.200000,0.106066
796.217083,0.150000,0.082916
796.250451,0.075000,0.188331
796.283818,0.100000,0.061237
796.317186,-0.025000,0.054486
796.350553,0.100000,0.035355
796.383920,-0.225000,0.096014
796.417286,0.200000,0.070711
796.450653,0.300000,0.297909
796.484019,0.575000,0.089268
796.517384,0.025000,0.054486
796.550750,0.175000,0.064952
796.584115,0.100000,0.093541
796.617480,-0.025000,0.021651
796.650844,0.075000,0.119242
796.684209,0.025000,0.089268
796.717573,0.725000,0.240767
796.750936,0.825000,0.265460
796.784300,0.475000,0.216145
796.817663,-0.050000,0.055902
796.851026,-0.025000,0.054486
796.884388,0.050000,0.090139
796.917751,0.275000,0.108253
796.951113,-0.025000,0.138632
796.984474,0.350000,0.246221
797.017836,0.275000,0.248433
797.051197,0.275000,0.021651
797.084558,-0.150000,0.055902
797.117918,0.575000,0.089268
797.151279,2.825000,0.510361
797.184639,13.575000,1.729297
797.217998,29.333333,0.265361
797.251358,54.200000,2.096724
797.284717,69.166667,1.531475
797.318076,53.300000,1.958635
797.351434,13.166667,1.263098
797.384793,3.975000,0.995851
797.418151,2.525000,0.330483
797.451508,0.675000,0.399022
797.484866,0.300000,0.117260
797.518223,0.425000,0.064952
797.551580,0.175000,0.081968
797.584936,0.175000,0.064952
797.618292,0.350000,0.361421
797.651648,0.250000,0.114564
797.685004,-0.125000,0.124373
797.718360,0.325000,0.108253
797.751715,0.200000,0.154110
797.785069,0.350000,0.103078
797.818424,0.000000,0.106066
797.851778,0.100000,0.127475
797.885132,-0.275000,0.064952
797.918486,0.700000,0.187083
797.951839,0.500000,0.271570
797.985192,0.350000,0.207666
798.018545,0.450000,0.163936
798.051898,0.175000,0.054486
798.085250,0.425000,0.253414
798.118602,0.275000,0.167239
798.151954,0.075000,0.054486
798.185305,0.325000,0.129301
798.218656,0.575000,0.255869
798.252007,0.450000,0.195256
798.285357,0.575000,0.108253
798.318708,0.250000,0.114564
798.352057,0.475000,0.216145
798.385407,0.400000,0.079057
798.418756,0.200000,0.061237
798.452106,0.350000,0.160078
798.485454,0.450000,0.277263
798.518803,0.500000,0.173205
798.552151,0.325000,0.238157
798.585499,0.575000,0.194856
798.618847,0.500000,0.231840
798.652194,0.400000,0.289396
798.685541,0.625000,0.143069
798.718888,0.275000,0.073951
798.752234,0.725000,0.272431
798.785580,0.600000,0.122474
798.818926,0.050000,0.103078
798.852272,-0.000000,0.093541
798.885617,0.050000,0.114564
798.918962,0.650000,0.453459
798.952307,0.300000,0.079057
798.985651,0.300000,0.117260
799.018996,1.325000,0.318934
799.052339,3.650000,0.506828
799.085683,16.625000,0.779724
799.119026,44.300000,0.715017
799.152369,70.750000,0.477297
799.185712,101.733333,2.261176
799.219054,73.950000,3.280339
799.252397,19.800000,1.373408
799.285738,4.725000,0.483962
799.319080,1.375000,0.143069
799.352421,0.875000,0.369755
799.385762,0.450000,0.216506
799.419103,0.325000,0.227418
799.452443,0.500000,0.226385
799.485783,0.425000,0.216145
799.519123,0.400000,0.187083
799.552463,0.050000,0.075000
799.585802,0.575000,0.320887
799.619141,0.025000,0.073951
799.652480,0.425000,0.155624
799.685818,0.050000,0.227761
799.719156,0.425000,0.081968
799.752494,0.425000,0.129301
799.785831,0.675000,0.357727
799.819169,0.400000,0.141421
799.852506,0.800000,0.465027
799.885842,0.050000,0.090139
799.919179,-0.025000,0.073951
799.952515,0.875000,0.415895
799.985850,0.375000,0.073951
800.019186,0.125000,0.081968
800.052521,0.625000,0.204252
800.085856,1.125000,0.270127
800.119191,0.350000,0.055902
800.152525,0.450000,0.147902
800.185859,0.275000,0.064952
800.219193,0.325000,0.113880
800.252526,0.675000,0.216145
800.285859,0.475000,0.272431
800.319192,0.125000,0.089268
800.352525,0.975000,0.253414
800.385857,0.525000,0.216145
800.419189,0.575000,0.054486
800.452521,0.625000,0.255869
800.485852,0.525000,0.253414
800.519183,0.050000,0.182003
800.552514,0.425000,0.163459
800.585844,0.275000,0.394295
800.619175,0.125000,0.138632
800.652505,0.400000,0.061237
800.685834,0.400000,0.061237
800.719164,0.075000,0.102317
800.752493,0.200000,0.035355
800.785821,0.500000,0.150000
800.819150,0.475000,0.073951
800.852478,0.375000,0.129301
800.885806,1.150000,0.413068
800.919134,1.450000,0.436606
800.952461,2.725000,0.184983
800.985788,15.866667,0.216025
801.019115,72.050000,2.064431
801.052441,162.450000,4.426412
801.085767,238.475000,5.788607
801.119093,213.833333,4.392086
801.152419,73.100000,3.143048
801.185744,17.825000,1.420992
801.219069,3.025000,0.412879
801.252394,0.825000,0.232849
801.285718,0.375000,0.155624
801.319042,0.525000,0.281458
801.352366,0.525000,0.373120
801.385690,0.750000,0.256174
801.419013,0.125000,0.320887
801.452336,0.225000,0.198037
801.485658,0.100000,0.329773
801.518981,0.525000,0.207289
801.552303,0.275000,0.155624
801.585625,0.175000,0.124373
801.618946,0.125000,0.096014
801.652267,-0.125000,0.054486
801.685588,0.625000,0.248433
801.718909,0.100000,0.035355
801.752229,0.325000,0.089268
801.785549,0.525000,0.216145
801.818869,0.475000,0.108253
801.852188,0.525000,0.318934
801.885507,1.100000,0.433013
801.918826,0.750000,0.103078
801.952145,0.225000,0.073951
801.985463,0.225000,0.174553
802.018781,0.900000,0.183712
802.052099,1.050000,0.410030
802.085416,0.600000,0.247487
802.118733,0.225000,0.064952
802.152050,0.225000,0.073951
802.185366,0.225000,0.255869
802.218683,0.400000,0.196850
802.251999,0.600000,0.187083
802.285314,0.175000,0.304908
802.318630,0.525000,0.124373
802.351945,0.325000,0.113880
802.385259,0.875000,0.442118
802.418574,0.475000,0.213234
802.451888,0.750000,0.246221
802.485202,1.275000,0.497965
802.518515,0.675000,0.364649
802.551829,0.225000,0.073951
802.585142,0.575000,0.089268
802.618454,0.375000,0.181573
802.651767,0.425000,0.170935
802.685079,-0.325000,0.267804
802.718391,0.225000,0.096014
802.751702,0.750000,0.334477
802.785013,0.375000,0.184983
802.818324,1.600000,0.418330
802.851635,1.775000,0.174553
802.884945,5.250000,0.515388
802.918255,35.433333,2.076455
802.951565,138.100000,2.797990
802.984874,246.600000,6.480837
803.018184,318.600000,7.072040
803.051492,216.875000,6.263423
803.084801,53.900000,1.019804
803.118109,11.325000,1.085918
803.151417,1.575000,0.592004
803.184725,0.600000,0.127475
803.218032,0.775000,0.221853
803.251339,0.775000,0.343466
803.284646,0.325000,0.073951
803.317953,1.150000,0.241091
803.351259,0.000000,0.127475
803.384565,0.275000,0.129301
803.417870,0.525000,0.138632
803.451176,0.425000,0.174553
803.484481,0.350000,0.152069
803.517786,0.800000,0.209165
803.551090,0.550000,0.361421
803.584394,0.400000,0.061237
803.617698,0.425000,0.138632
803.651002,0.825000,0.240767
803.684305,0.850000,0.400780
803.717608,0.225000,0.108253
803.750910,1.175000,0.255869
803.784213,1.275000,0.354216
803.817515,1.450000,0.325000
803.850817,0.875000,0.332368
803.884118,0.650000,0.188746
803.917419,0.975000,0.300780
803.950720,1.525000,0.147373
803.984021,1.850000,0.476314
804.017321,0.425000,0.213234
804.050621,0.650000,0.313249
804.083921,0.675000,0.170935
804.117220,0.775000,0.354216
804.150519,0.325000,0.041458
804.183818,0.275000,0.096014
804.217117,0.350000,0.125000
804.250415,0.725000,0.155624
804.283713,1.300000,0.257391
804.317011,0.825000,0.292350
804.350308,0.625000,0.267804
804.383605,0.625000,0.096014
804.416902,1.475000,0.235518
804.450198,0.300000,0.070711
804.483494,1.050000,0.334477
804.516790,0.550000,0.216506
804.550086,1.050000,0.550568
804.583381,0.250000,0.125000
804.616676,0.750000,0.235850
804.649971,1.025000,0.276981
804.683265,0.775000,0.113880
804.716559,0.725000,0.159589
804.749853,1.500000,0.297909
804.783146,2.625000,0.520066
804.816440,9.150000,1.025000
804.849732,51.475000,2.152433
804.883025,190.000000,4.092524
804.916317,343.666667,2.490566
804.949609,423.150000,9.774744
804.982901,256.433333,2.109897
805.016192,61.750000,3.129197
805.049484,13.675000,1.077251
805.082774,1.950000,0.579332
805.116065,1.075000,0.283670
805.149355,0.600000,0.035355
805.182645,0.800000,0.244949
805.215935,1.025000,0.490376
805.249224,1.075000,0.324760
805.282513,0.350000,0.160078
805.315802,0.550000,0.143614
805.349090,0.950000,0.343693
805.382378,0.575000,0.134048
805.415666,0.900000,0.162019
805.448954,1.200000,0.165831
805.482241,0.475000,0.216145
805.515528,0.475000,0.054486
805.548815,0.725000,0.194856
805.582101,0.275000,0.188331
805.615387,0.500000,0.136931
805.648673,0.625000,0.320887
805.681958,0.250000,0.114564
805.715243,1.275000,0.096014
805.748528,1.375000,0.216145
805.781813,0.750000,0.317214
805.815097,1.700000,0.351781
805.848381,0.600000,0.329773
805.881665,0.875000,0.232849
805.914948,0.900000,0.061237
805.948231,1.125000,0.255869
805.981514,0.525000,0.102317
806.014796,0.650000,0.134629
806.048079,0.775000,0.232849
806.081360,0.825000,0.201168
806.114642,1.125000,0.402143
806.147923,0.575000,0.227418
806.181204,0.925000,0.348882
806.214485,0.350000,0.279508
806.247765,0.825000,0.320887
806.281046,1.300000,0.422788
806.314325,0.900000,0.325960
806.347605,0.425000,0.283670
806.380884,0.125000,0.216145
806.414163,0.675000,0.143069
806.447441,0.775000,0.119242
806.480720,0.450000,0.134629
806.513998,0.925000,0.245904
806.547275,0.825000,0.255869
806.580553,1.100000,0.348210
806.613830,1.125000,0.124373
806.647107,1.525000,0.391112
806.680383,1.800000,0.404660
806.713659,2.800000,0.289396
806.746935,6.475000,0.594112
806.780211,52.433333,0.702080
806.813486,253.675000,5.721929
806.846761,584.100000,8.316174
806.880036,775.600000,9.934158
806.913310,625.850000,6.508120
806.946584,174.375000,1.846407
806.979858,26.000000,0.982344
807.013132,5.825000,0.822629
807.046405,1.400000,0.169558
807.079678,0.775000,0.124373
807.112951,1.350000,0.475000
807.146223,0.675000,0.194856
807.179495,0.825000,0.290205
807.212767,0.200000,0.237171
807.246038,0.475000,0.198037
807.279309,1.225000,0.201168
807.312580,0.525000,0.194856
807.345850,0.425000,0.174553
807.379121,0.550000,0.265754
807.412390,0.850000,0.195256
807.445660,0.400000,0.106066
807.478929,1.075000,0.296595
807.512198,1.100000,0.183712
807.545467,1.225000,0.230149
807.578735,1.175000,0.374792
807.612004,0.100000,0.273861
807.645271,0.550000,0.134629
807.678539,0.750000,0.160078
807.711806,1.700000,0.367423
807.745073,1.550000,0.439460
807.778340,1.000000,0.158114
807.811606,2.750000,0.453459
807.844872,1.675000,0.198037
807.878138,2.300000,0.509902
807.911403,0.800000,0.293684
807.944668,1.175000,0.265460
807.977933,1.075000,0.041458
808.011197,0.700000,0.154110
808.044462,1.225000,0.343466
808.077725,1.275000,0.270127
808.110989,1.275000,0.178098
808.144252,0.950000,0.055902
808.177515,1.425000,0.468208
808.210778,1.425000,0.194856
808.244040,0.800000,0.154110
808.277302,0.875000,0.207289
808.310564,0.700000,0.162019
808.343826,1.425000,0.143069
808.377087,2.000000,0.673610
808.410348,1.700000,0.093541
808.443608,1.575000,0.096014
808.476869,1.000000,0.247487
808.510129,1.000000,0.158114
808.543388,1.325000,0.113880
808.576648,1.625000,0.194856
808.609907,1.725000,0.163459
808.643165,2.375000,0.391112
808.676424,5.250000,0.784618
808.709682,26.475000,1.582077
808.742940,195.550000,5.394731
808.776197,677.700000,10.713251
808.809455,1092.450000,4.580461
808.842712,1082.175000,7.636211
808.875968,532.833333,5.758074
808.909225,95.550000,2.617847
808.942481,17.525000,0.900260
808.975736,4.175000,0.673958
809.008992,2.150000,0.311247
809.042247,1.825000,0.418890
809.075502,0.800000,0.276134
809.108756,0.325000,0.442118
809.142011,1.150000,0.213600
809.175265,1.350000,0.275000
809.208518,1.350000,0.283945
809.241772,1.325000,0.263095
809.275025,0.975000,0.163459
809.308277,1.150000,0.403887
809.341530,1.125000,0.163459
809.374782,2.250000,0.375000
809.408034,1.350000,0.143614
809.441285,1.025000,0.374792
809.474536,1.600000,0.127475
809.507787,1.300000,0.615427
809.541038,1.750000,0.391312
809.574288,1.850000,0.396074
809.607538,1.575000,0.421863
809.640788,1.275000,0.313000
809.674037,2.025000,0.374792
809.707286,2.350000,0.414578
809.740535,3.800000,0.554527
809.773783,3.525000,0.517657
809.807032,2.800000,0.340955
809.840279,2.050000,0.261008
809.873527,2.200000,0.607248
809.906774,2.075000,0.216145
809.940021,1.725000,0.188331
809.973268,2.700000,0.276134
810.006514,1.550000,0.167705
810.039760,1.775000,0.224653
810.073006,2.400000,0.247487
810.106251,2.275000,0.263095
810.139497,2.475000,0.272431
810.172741,1.875000,0.096014
810.205986,2.550000,0.396074
810.239230,2.225000,0.276981
810.272474,3.800000,0.302076
810.305718,4.250000,0.467039
810.338961,4.200000,0.812404
810.372204,3.850000,0.388104
810.405447,3.250000,0.082916
810.438689,4.675000,0.147373
810.471931,4.175000,0.330483
810.505173,4.925000,0.330483
810.538414,5.900000,0.093541
810.571656,6.800000,0.314245
810.604897,8.800000,0.535023
810.638137,16.166667,0.213112
810.671377,65.333333,1.837911
810.704617,445.425000,7.415134
810.737857,1548.575000,17.181544
810.771096,2117.600000,6.137487
810.804335,1786.500000,16.096389
810.837574,830.900000,8.565410
810.870813,126.266667,4.436402
810.904051,23.600000,2.289378
810.937288,4.325000,1.060292
810.970526,1.025000,0.577034
811.003763,0.475000,0.255869
811.037000,1.475000,0.343466
811.070237,0.900000,0.289396
811.103473,0.150000,0.219374
811.136709,0.075000,0.108253
811.169945,0.575000,0.391112
811.203180,0.200000,0.136931
811.236415,0.225000,0.054486
811.269650,0.650000,0.167705
811.302884,0.450000,0.454835
811.336119,-0.175000,0.134048
811.369352,0.750000,0.182003
811.402586,1.325000,0.500469
811.435819,3.250000,1.229583
811.469052,7.350000,0.949013
811.502285,4.400000,0.482183
811.535517,0.200000,0.348210
811.568749,3.700000,0.548862
811.601981,2.975000,0.483962
811.635212,0.475000,0.364649
811.668443,0.300000,0.183712
811.701674,1.075000,0.073951
811.734905,1.800000,0.541987
811.768135,1.700000,0.438748
811.801365,1.725000,0.255869
811.834594,1.825000,0.746973
811.867824,0.175000,0.102317
811.901053,0.800000,0.643234
811.934281,0.650000,0.368273
811.967510,1.350000,0.090139
812.000738,1.225000,0.442118
812.033965,0.550000,0.082916
812.067193,0.325000,0.089268
812.100420,0.625000,0.167239
812.133647,1.225000,0.464186
812.166873,0.425000,0.523659
812.200099,0.325000,0.089268
812.233325,0.175000,0.064952
812.266551,0.475000,0.302851
812.299776,0.300000,0.154110
812.333001,0.700000,0.291548
812.366226,0.575000,0.274716
812.399450,0.575000,0.240767
812.432674,0.775000,0.178098
812.465898,0.100000,0.127475
812.499121,1.050000,0.522614
812.532345,1.400000,0.111803
812.565567,0.925000,0.248433
812.598790,2.725000,0.552692
812.632012,14.300000,0.910357
812.665234,113.875000,2.978123
812.698456,493.075000,5.545198
812.731677,893.350000,12.394379
812.764898,856.900000,12.772676
812.798119,442.925000,7.378209
812.831339,62.500000,1.998437
812.864559,11.125000,1.701975
812.897779,2.400000,0.662382
812.930998,0.625000,0.143069
812.964217,0.200000,0.209165
812.997436,0.325000,0.267804
813.030655,0.500000,0.127475
813.063873,-0.150000,0.043301
813.097091,0.425000,0.400586
813.130308,0.025000,0.235518
813.163526,0.150000,0.055902
813.196743,0.250000,0.313249
813.229959,0.250000,0.246221
813.263176,0.575000,0.279229
813.296392,0.525000,0.466871
813.329607,0.350000,0.163936
813.362823,0.150000,0.195256
813.396038,0.600000,0.127475
813.429253,0.225000,0.290205
813.462467,0.200000,0.183712
813.495682,0.425000,0.147373
813.528895,0.850000,0.343693
813.562109,0.200000,0.136931
813.595322,0.600000,0.259808
813.628535,0.300000,0.093541
813.661748,0.275000,0.113880
813.694960,0.075000,0.064952
813.728172,0.175000,0.170935
813.761384,0.225000,0.073951
813.794596,-0.400000,0.127475
813.827807,-0.100000,0.111803
813.861017,0.475000,0.355976
813.894228,0.250000,0.283945
813.927438,0.750000,0.511737
813.960648,0.400000,0.187083
813.993858,0.025000,0.147373
814.027067,0.375000,0.054486
814.060276,0.625000,0.258300
814.093485,0.125000,0.167239
814.126693,-0.000000,0.190394
814.159901,-0.275000,0.124373
814.193109,0.025000,0.188331
814.226316,0.700000,0.165831
814.259523,0.175000,0.194856
814.292730,-0.075000,0.089268
814.325936,0.450000,0.188746
814.359143,0.600000,0.325960
814.392348,0.425000,0.184983
814.425554,0.825000,0.300780
814.458759,0.425000,0.310996
814.491964,-0.050000,0.134629
814.525169,0.300000,0.215058
814.558373,-0.025000,0.213234
814.591577,-0.125000,0.041458
814.624781,0.425000,0.201168
814.657984,1.575000,0.490376
