#{
#    "background_file": "Backgrounds\\\\bg_787.999nm_16bin_197st_244en_10.0s_110g_4x_1_seq.txt",
#    "ccd_image_settings": [
#        1,
#        16,
#        1,
#        1600,
#        197,
#        244
#    ],
#    "ccd_temperature": "-88",
#    "cdRatios": {
#        "mean": 0.9228816440531569,
#        "std": 0.005882926220565555
#    },
#    "center_lambda": 788.0,
#    "comments": "",
#    "dark_region": 0.3177086898478191,
#    "date": "11/17/19 14:58:56PM",
#    "eff_field": 1.5,
#    "exposure": 10.0,
#    "fel_lambda": "15.0",
#    "fel_pol": "H",
#    "fel_pulses": 40,
#    "fel_pyro_cal": "0.017",
#    "fel_reprate": "1.07",
#    "fel_transmission": "1.0",
#    "fel_transmission_fits": {
#        "A": 1.0,
#        "C": 0.0,
#        "Mu": 0.0
#    },
#    "fieldInt": {
#        "mean": 9719.970045454545,
#        "std": 342.5486548320818
#    },
#    "fieldStrength": {
#        "mean": 45.22613636363637,
#        "std": 0.8048044082751117
#    },
#    "fpTime": {
#        "mean": 1.1981658370823158,
#        "std": 0.07082303635599976
#    },
#    "gain": 110,
#    "grating": 3,
#    "images_in_sequence": [
#        "hsg_SpotD_crystal16_a00_HAna225.txt",
#        "hsg_SpotD_crystal16_a00_HAna226.txt",
#        "hsg_SpotD_crystal16_a00_HAna227.txt",
#        "hsg_SpotD_crystal16_a00_HAna228.txt"
#    ],
#    "nir_lambda": "820.9918",
#    "nir_pola": "00",
#    "nir_polg": "0",
#    "nir_power": "100.0",
#    "pulseEnergies": {
#        "mean": 2.112909090909091,
#        "std": 0.08476170052229082
#    },
#    "pyroVoltage": {
#        "mean": 0.1347259970060028,
#        "std": 0.006113344571161254
#    },
#    "rotatorAngle": 157.4999963378817,
#    "sample_Temp": "58",
#    "sample_name": "L001218.C3",
#    "series": "SpotD_16_00",
#    "slits": "60",
#    "spec_step": "",
#    "window_trans": 0.92,
#    "y_max": 2,
#    "y_min": 1
#}
#
#
#
#
#
#
#
#
#
#
#
#
#
#
#
#
#
#
#
#
#
#
#
#
#
#
Wavelength,Signal,error
nm,arb. u.,arb.u.
Wavelength,SpotD_16_00,error
761.200217,-0.125000,0.108253
761.233859,-0.100000,0.093541
761.267500,0.550000,0.055902
761.301141,-0.050000,0.025000
761.334781,0.200000,0.162019
761.368422,-0.350000,0.043301
761.402062,0.275000,0.064952
761.435702,0.225000,0.147373
761.469342,0.075000,0.201168
761.502981,0.100000,0.154110
761.536620,0.175000,0.155624
761.570259,0.075000,0.143069
761.603898,-0.150000,0.114564
761.637537,-0.125000,0.081968
761.671175,-0.025000,0.129301
761.704813,-0.033333,0.054006
761.738451,0.050000,0.147902
761.772088,-0.050000,0.055902
761.805726,-0.075000,0.198037
761.839363,-0.075000,0.113880
761.873000,-0.400000,0.061237
761.906636,0.150000,0.043301
761.940273,0.250000,0.207666
761.973909,0.200000,0.169558
762.007545,0.075000,0.054486
762.041180,0.025000,0.184983
762.074816,0.375000,0.292350
762.108451,0.275000,0.124373
762.142086,0.375000,0.240767
762.175720,0.150000,0.055902
762.209355,0.300000,0.289396
762.242989,0.400000,0.231840
762.276623,0.050000,0.075000
762.310257,0.000000,0.100000
762.343890,-0.350000,0.075000
762.377524,-0.225000,0.054486
762.411157,0.025000,0.054486
762.444789,-0.025000,0.124373
762.478422,0.050000,0.055902
762.512054,0.025000,0.108253
762.545686,0.125000,0.041458
762.579318,0.200000,0.127475
762.612950,0.200000,0.093541
762.646581,-0.050000,0.108972
762.680212,0.375000,0.155624
762.713843,0.150000,0.090139
762.747474,0.000000,0.050000
762.781104,0.400000,0.406202
762.814734,-0.450000,0.147902
762.848364,-0.050000,0.103078
762.881994,0.025000,0.216145
762.915623,0.175000,0.089268
762.949252,0.150000,0.043301
762.982881,0.000000,0.127475
763.016510,0.125000,0.073951
763.050139,-0.225000,0.073951
763.083767,0.575000,0.296595
763.117395,0.175000,0.073951
763.151023,0.025000,0.041458
763.184650,0.475000,0.129301
763.218277,-0.025000,0.124373
763.251904,0.075000,0.096014
763.285531,0.025000,0.108253
763.319158,0.275000,0.089268
763.352784,-0.175000,0.054486
763.386410,0.150000,0.188746
763.420036,1.100000,0.650000
763.453661,0.375000,0.300780
763.487287,0.275000,0.238157
763.520912,-0.650000,0.265754
763.554537,0.700000,0.419821
763.588161,0.175000,0.119242
763.621786,0.050000,0.195256
763.655410,0.400000,0.237171
763.689034,-0.300000,0.079057
763.722657,0.025000,0.129301
763.756281,0.275000,0.163459
763.789904,-0.050000,0.055902
763.823527,0.075000,0.248433
763.857150,-0.200000,0.061237
763.890772,-0.350000,0.103078
763.924394,0.225000,0.230149
763.958016,0.150000,0.103078
763.991638,0.225000,0.147373
764.025260,0.075000,0.102317
764.058881,0.125000,0.021651
764.092502,-0.100000,0.145774
764.126123,0.400000,0.154110
764.159743,0.350000,0.175000
764.193363,-0.200000,0.000000
764.226983,0.000000,0.079057
764.260603,0.250000,0.055902
764.294223,-0.175000,0.096014
764.327842,0.200000,0.093541
764.361461,0.175000,0.213234
764.395080,-0.050000,0.082916
764.428699,-0.100000,0.106066
764.462317,0.150000,0.134629
764.495935,-0.025000,0.143069
764.529553,0.000000,0.035355
764.563170,0.350000,0.219374
764.596788,0.475000,0.267804
764.630405,0.125000,0.188331
764.664022,-0.075000,0.041458
764.697638,0.500000,0.196850
764.731255,0.250000,0.103078
764.764871,0.150000,0.025000
764.798487,-0.175000,0.096014
764.832103,-0.025000,0.021651
764.865718,0.225000,0.089268
764.899333,0.375000,0.313000
764.932948,-0.275000,0.041458
764.966563,-0.075000,0.174553
765.000177,0.475000,0.292350
765.033792,0.175000,0.155624
765.067406,0.100000,0.079057
765.101019,0.100000,0.100000
765.134633,-0.150000,0.235850
765.168246,0.725000,0.545865
765.201859,0.075000,0.096014
765.235472,0.175000,0.143069
765.269084,0.175000,0.096014
765.302697,-0.175000,0.081968
765.336309,0.225000,0.108253
765.369920,0.300000,0.093541
765.403532,-0.125000,0.041458
765.437143,-0.200000,0.061237
765.470754,0.150000,0.082916
765.504365,0.225000,0.073951
765.537976,0.000000,0.079057
765.571586,0.125000,0.201168
765.605196,-0.125000,0.041458
765.638806,-0.050000,0.075000
765.672416,0.100000,0.061237
765.706025,0.150000,0.082916
765.739634,-0.025000,0.089268
765.773243,0.025000,0.021651
765.806851,0.200000,0.127475
765.840460,-0.025000,0.096014
765.874068,0.075000,0.119242
765.907676,-0.175000,0.096014
765.941284,-0.125000,0.089268
765.974891,0.175000,0.096014
766.008498,0.000000,0.061237
766.042105,-0.075000,0.064952
766.075712,-0.125000,0.041458
766.109318,0.350000,0.536773
766.142924,0.400000,0.287228
766.176530,-0.200000,0.276134
766.210136,0.050000,0.225000
766.243741,0.325000,0.255869
766.277347,-0.150000,0.055902
766.310951,-0.150000,0.090139
766.344556,0.275000,0.155624
766.378161,0.450000,0.283945
766.411765,-0.200000,0.035355
766.445369,0.075000,0.170935
766.478973,0.425000,0.389511
766.512576,0.050000,0.043301
766.546179,0.100000,0.117260
766.579782,-0.125000,0.041458
766.613385,0.375000,0.267804
766.646988,-0.125000,0.129301
766.680590,-0.050000,0.025000
766.714192,-0.100000,0.061237
766.747794,-0.050000,0.025000
766.781395,0.200000,0.035355
766.814996,-0.400000,0.061237
766.848597,0.100000,0.176777
766.882198,0.075000,0.073951
766.915799,0.275000,0.102317
766.949399,0.375000,0.155624
766.982999,0.175000,0.054486
767.016599,0.000000,0.106066
767.050198,0.000000,0.079057
767.083798,0.150000,0.108972
767.117397,-0.100000,0.106066
767.150996,0.050000,0.134629
767.184594,-0.300000,0.242384
767.218193,0.050000,0.025000
767.251791,0.200000,0.247487
767.285389,-0.200000,0.035355
767.318986,0.050000,0.175000
767.352583,0.200000,0.127475
767.386181,0.050000,0.075000
767.419777,0.200000,0.215058
767.453374,0.700000,0.379144
767.486970,-0.025000,0.210283
767.520567,0.150000,0.075000
767.554162,0.100000,0.196850
767.587758,0.125000,0.041458
767.621353,0.325000,0.138632
767.654949,0.075000,0.081968
767.688543,0.125000,0.073951
767.722138,0.075000,0.054486
767.755732,0.150000,0.055902
767.789327,-0.075000,0.073951
767.822921,-0.125000,0.096014
767.856514,-0.225000,0.041458
767.890108,0.350000,0.279508
767.923701,0.025000,0.064952
767.957294,0.375000,0.081968
767.990886,0.525000,0.147373
768.024479,-0.025000,0.096014
768.058071,0.150000,0.090139
768.091663,0.100000,0.247487
768.125255,0.050000,0.160078
768.158846,0.150000,0.103078
768.192437,-0.275000,0.089268
768.226028,0.075000,0.143069
768.259619,0.100000,0.145774
768.293209,0.050000,0.163936
768.326799,0.250000,0.167705
768.360389,0.025000,0.054486
768.393979,-0.050000,0.043301
768.427568,0.025000,0.129301
768.461158,-0.100000,0.127475
768.494747,-0.175000,0.041458
768.528335,-0.025000,0.155624
768.561924,0.525000,0.054486
768.595512,0.125000,0.089268
768.629100,0.250000,0.055902
768.662688,0.150000,0.192029
768.696275,0.325000,0.429207
768.729862,0.050000,0.219374
768.763449,0.125000,0.174553
768.797036,-0.100000,0.035355
768.830623,0.175000,0.064952
768.864209,0.150000,0.075000
768.897795,0.100000,0.079057
768.931381,0.175000,0.134048
768.964966,-0.150000,0.043301
768.998551,0.275000,0.021651
769.032136,0.800000,0.443001
769.065721,0.175000,0.124373
769.099305,0.075000,0.184983
769.132890,-0.175000,0.073951
769.166474,0.225000,0.073951
769.200057,0.075000,0.089268
769.233641,0.075000,0.073951
769.267224,0.300000,0.231840
769.300807,-0.200000,0.093541
769.334390,0.225000,0.255869
769.367972,0.275000,0.108253
769.401555,-0.175000,0.113880
769.435137,-0.275000,0.143069
769.468718,0.075000,0.113880
769.502300,0.100000,0.035355
769.535881,-0.125000,0.081968
769.569462,-0.350000,0.163936
769.603043,0.075000,0.096014
769.636623,-0.025000,0.054486
769.670204,0.025000,0.155624
769.703784,0.175000,0.108253
769.737364,0.550000,0.303109
769.770943,0.125000,0.155624
769.804522,-0.100000,0.079057
769.838101,0.025000,0.096014
769.871680,0.075000,0.054486
769.905259,-0.250000,0.167705
769.938837,0.100000,0.122474
769.972415,-0.050000,0.075000
770.005993,0.325000,0.102317
770.039570,-0.025000,0.021651
770.073147,0.150000,0.103078
770.106724,0.450000,0.279508
770.140301,0.250000,0.025000
770.173878,0.075000,0.174553
770.207454,0.025000,0.064952
770.241030,0.300000,0.136931
770.274606,0.250000,0.175000
770.308181,0.375000,0.210283
770.341757,0.025000,0.089268
770.375332,-0.025000,0.041458
770.408906,0.100000,0.035355
770.442481,-0.100000,0.093541
770.476055,0.100000,0.169558
770.509629,0.675000,0.330483
770.543203,0.100000,0.136931
770.576776,-0.025000,0.081968
770.610350,0.075000,0.041458
770.643923,0.100000,0.035355
770.677495,-0.075000,0.089268
770.711068,-0.025000,0.113880
770.744640,0.100000,0.093541
770.778212,-0.125000,0.096014
770.811784,0.075000,0.073951
770.845356,0.050000,0.125000
770.878927,0.200000,0.061237
770.912498,0.300000,0.145774
770.946069,-0.200000,0.035355
770.979639,-0.025000,0.089268
771.013209,0.150000,0.075000
771.046779,-0.300000,0.079057
771.080349,0.050000,0.055902
771.113919,0.100000,0.086603
771.147488,0.025000,0.073951
771.181057,-0.000000,0.086603
771.214626,0.125000,0.134048
771.248194,0.175000,0.108253
771.281762,-0.075000,0.089268
771.315330,-0.075000,0.073951
771.348898,0.225000,0.073951
771.382465,0.250000,0.182003
771.416033,0.250000,0.178536
771.449600,0.175000,0.240767
771.483166,0.450000,0.207666
771.516733,0.475000,0.167239
771.550299,0.025000,0.143069
771.583865,-0.225000,0.064952
771.617431,0.125000,0.041458
771.650996,0.525000,0.263095
771.684562,0.600000,0.215058
771.718127,0.000000,0.061237
771.751691,0.025000,0.021651
771.785256,0.375000,0.240767
771.818820,-0.050000,0.043301
771.852384,0.050000,0.055902
771.885948,0.100000,0.187083
771.919511,-0.300000,0.035355
771.953074,0.350000,0.103078
771.986637,0.300000,0.150000
772.020200,0.150000,0.103078
772.053762,0.050000,0.114564
772.087325,0.075000,0.073951
772.120887,0.275000,0.415895
772.154448,0.250000,0.055902
772.188010,0.075000,0.143069
772.221571,-0.025000,0.041458
772.255132,-0.050000,0.108972
772.288692,0.325000,0.429207
772.322253,0.450000,0.283945
772.355813,0.025000,0.143069
772.389373,-0.175000,0.151554
772.422933,-0.025000,0.207289
772.456492,0.125000,0.073951
772.490051,0.025000,0.041458
772.523610,0.050000,0.103078
772.557169,0.175000,0.073951
772.590727,0.200000,0.215058
772.624285,0.000000,0.111803
772.657843,0.125000,0.102317
772.691401,-0.125000,0.054486
772.724958,-0.075000,0.054486
772.758515,-0.025000,0.096014
772.792072,0.425000,0.174553
772.825629,-0.125000,0.081968
772.859185,0.400000,0.079057
772.892741,-0.175000,0.021651
772.926297,-0.000000,0.093541
772.959853,-0.125000,0.096014
772.993408,-0.875000,0.129301
773.026963,-0.225000,0.155624
773.060518,0.350000,0.227761
773.094073,-0.025000,0.102317
773.127627,0.750000,0.410030
773.161181,0.100000,0.000000
773.194735,0.100000,0.093541
773.228289,0.175000,0.129301
773.261842,1.475000,0.544719
773.295395,0.050000,0.147902
773.328948,0.850000,0.449305
773.362500,0.500000,0.276134
773.396053,0.275000,0.332368
773.429605,0.100000,0.111803
773.463157,0.100000,0.061237
773.496708,0.125000,0.073951
773.530260,-0.275000,0.041458
773.563811,0.075000,0.151554
773.597361,-0.150000,0.043301
773.630912,0.325000,0.306951
773.664462,0.300000,0.093541
773.698012,-0.075000,0.064952
773.731562,0.075000,0.064952
773.765111,0.350000,0.303109
773.798661,0.100000,0.127475
773.832210,-0.050000,0.075000
773.865758,0.100000,0.127475
773.899307,0.000000,0.061237
773.932855,0.075000,0.096014
773.966403,-0.050000,0.055902
773.999951,0.075000,0.054486
774.033498,-0.025000,0.041458
774.067046,0.100000,0.061237
774.100593,0.200000,0.093541
774.134139,0.250000,0.163936
774.167686,0.075000,0.108253
774.201232,0.425000,0.255869
774.234778,0.150000,0.090139
774.268324,0.225000,0.147373
774.301869,0.125000,0.064952
774.335414,-0.275000,0.054486
774.368959,0.250000,0.134629
774.402504,0.050000,0.043301
774.436048,-0.125000,0.021651
774.469592,0.100000,0.176777
774.503136,0.150000,0.055902
774.536680,0.075000,0.054486
774.570223,0.250000,0.075000
774.603766,0.150000,0.055902
774.637309,0.250000,0.125000
774.670852,0.625000,0.294480
774.704394,-0.050000,0.055902
774.737936,-0.075000,0.073951
774.771478,-0.175000,0.054486
774.805020,0.150000,0.055902
774.838561,0.150000,0.160078
774.872102,0.475000,0.102317
774.905643,0.300000,0.122474
774.939183,0.500000,0.215058
774.972724,0.275000,0.096014
775.006264,0.500000,0.266927
775.039804,1.125000,0.219018
775.073343,0.450000,0.178536
775.106882,0.675000,0.320887
775.140421,0.375000,0.064952
775.173960,-0.025000,0.174553
775.207499,-0.125000,0.102317
775.241037,0.050000,0.055902
775.274575,0.175000,0.167239
775.308113,0.100000,0.320156
775.341650,0.250000,0.025000
775.375187,0.125000,0.054486
775.408724,0.000000,0.122474
775.442261,0.050000,0.188746
775.475798,-0.175000,0.054486
775.509334,0.050000,0.055902
775.542870,0.050000,0.114564
775.576405,-0.150000,0.182003
775.609941,0.175000,0.021651
775.643476,0.075000,0.064952
775.677011,0.075000,0.096014
775.710546,0.175000,0.041458
775.744080,0.275000,0.089268
775.777614,-0.050000,0.055902
775.811148,-0.125000,0.134048
775.844682,-0.150000,0.055902
775.878215,-0.125000,0.124373
775.911748,0.475000,0.357727
775.945281,-0.050000,0.082916
775.978814,0.150000,0.182003
776.012346,0.125000,0.064952
776.045878,-0.100000,0.086603
776.079410,0.175000,0.089268
776.112941,0.125000,0.041458
776.146473,-0.050000,0.055902
776.180004,0.250000,0.256174
776.213535,0.200000,0.035355
776.247065,-0.050000,0.125000
776.280595,0.150000,0.082916
776.314125,0.250000,0.055902
776.347655,-0.150000,0.103078
776.381185,-0.275000,0.041458
776.414714,0.300000,0.061237
776.448243,-0.100000,0.093541
776.481772,-0.025000,0.134048
776.515300,-0.025000,0.021651
776.548828,0.000000,0.061237
776.582356,0.000000,0.117260
776.615884,-0.050000,0.103078
776.649411,0.175000,0.054486
776.682938,0.100000,0.079057
776.716465,0.250000,0.258602
776.749992,-0.000000,0.093541
776.783518,0.700000,0.293684
776.817044,0.800000,0.398434
776.850570,1.300000,0.437321
776.884096,1.800000,0.187083
776.917621,0.325000,0.456036
776.951146,0.200000,0.187083
776.984671,-0.375000,0.021651
777.018196,-0.000000,0.093541
777.051720,0.200000,0.209165
777.085244,0.175000,0.108253
777.118768,-0.325000,0.216145
777.152292,0.225000,0.113880
777.185815,0.175000,0.021651
777.219338,0.125000,0.129301
777.252861,0.175000,0.096014
777.286383,0.175000,0.064952
777.319905,0.025000,0.064952
777.353427,0.225000,0.041458
777.386949,0.350000,0.134629
777.420471,0.150000,0.082916
777.453992,0.100000,0.079057
777.487513,0.225000,0.064952
777.521033,-0.325000,0.119242
777.554554,-0.200000,0.061237
777.588074,0.300000,0.122474
777.621594,0.075000,0.021651
777.655114,0.125000,0.113880
777.688633,0.225000,0.207289
777.722152,0.125000,0.113880
777.755671,0.200000,0.150000
777.789190,0.000000,0.070711
777.822708,0.050000,0.134629
777.856226,0.200000,0.061237
777.889744,0.275000,0.119242
777.923261,0.000000,0.050000
777.956779,0.075000,0.041458
777.990296,0.600000,0.276134
778.023812,0.275000,0.163459
778.057329,0.050000,0.134629
778.090845,0.350000,0.192029
778.124361,0.100000,0.070711
778.157877,0.100000,0.209165
778.191392,-0.075000,0.089268
778.224908,0.200000,0.206155
778.258423,0.200000,0.079057
778.291937,0.325000,0.163459
778.325452,0.150000,0.160078
778.358966,0.200000,0.093541
778.392480,0.325000,0.227418
778.425993,0.250000,0.103078
778.459507,0.025000,0.064952
778.493020,0.050000,0.216506
778.526533,-0.075000,0.073951
778.560045,-0.200000,0.154110
778.593558,0.700000,0.215058
778.627070,0.800000,0.348210
778.660582,2.175000,0.542419
778.694093,2.525000,0.394295
778.727605,2.650000,0.544862
778.761116,1.075000,0.302851
778.794626,0.250000,0.075000
778.828137,0.125000,0.096014
778.861647,0.150000,0.043301
778.895157,0.575000,0.306951
778.928667,0.375000,0.207289
778.962176,0.050000,0.043301
778.995686,0.025000,0.159589
779.029194,0.325000,0.113880
779.062703,0.125000,0.073951
779.096212,0.125000,0.054486
779.129720,0.200000,0.127475
779.163228,-0.100000,0.093541
779.196735,0.025000,0.041458
779.230243,-0.725000,0.054486
779.263750,0.175000,0.064952
779.297257,0.075000,0.064952
779.330763,0.075000,0.096014
779.364269,0.050000,0.103078
779.397776,0.150000,0.025000
779.431281,0.150000,0.134629
779.464787,0.025000,0.064952
779.498292,-0.025000,0.064952
779.531797,0.225000,0.021651
779.565302,0.200000,0.061237
779.598806,0.400000,0.106066
779.632311,0.375000,0.151554
779.665814,0.300000,0.122474
779.699318,0.425000,0.174553
779.732822,0.400000,0.106066
779.766325,0.275000,0.155624
779.799828,0.100000,0.154110
779.833330,-0.025000,0.170935
779.866833,-0.050000,0.103078
779.900335,0.275000,0.134048
779.933837,0.075000,0.073951
779.967338,-0.050000,0.025000
780.000840,0.100000,0.127475
780.034341,-0.150000,0.043301
780.067841,0.200000,0.187083
780.101342,-0.025000,0.054486
780.134842,0.075000,0.064952
780.168342,0.250000,0.256174
780.201842,0.200000,0.093541
780.235341,0.200000,0.070711
780.268841,0.050000,0.055902
780.302340,0.100000,0.079057
780.335838,0.400000,0.176777
780.369337,0.250000,0.321131
780.402835,0.200000,0.162019
780.436333,1.625000,0.230149
780.469830,1.866667,0.357654
780.503328,3.100000,0.660492
780.536825,2.950000,0.400780
780.570322,1.925000,0.359470
780.603818,0.350000,0.082916
780.637315,0.050000,0.108972
780.670811,-0.150000,0.055902
780.704306,0.150000,0.103078
780.737802,0.300000,0.206155
780.771297,-0.025000,0.096014
780.804792,0.000000,0.061237
780.838287,0.225000,0.073951
780.871781,0.100000,0.145774
780.905276,-0.025000,0.102317
780.938770,-0.075000,0.155624
780.972263,-0.025000,0.064952
781.005757,0.075000,0.021651
781.039250,0.375000,0.207289
781.072743,0.125000,0.108253
781.106235,-0.025000,0.041458
781.139728,0.525000,0.369755
781.173220,0.175000,0.064952
781.206712,0.150000,0.082916
781.240203,0.150000,0.182003
781.273694,0.125000,0.096014
781.307185,0.200000,0.086603
781.340676,0.125000,0.113880
781.374167,0.250000,0.246221
781.407657,0.350000,0.055902
781.441147,0.125000,0.167239
781.474636,0.100000,0.176777
781.508126,-0.100000,0.070711
781.541615,0.175000,0.151554
781.575104,0.125000,0.102317
781.608593,0.350000,0.082916
781.642081,0.400000,0.154110
781.675569,-0.050000,0.055902
781.709057,-0.000000,0.086603
781.742544,0.175000,0.064952
781.776032,0.050000,0.103078
781.809519,-0.150000,0.082916
781.843006,0.075000,0.064952
781.876492,-0.025000,0.064952
781.909978,0.175000,0.021651
781.943464,0.200000,0.061237
781.976950,0.325000,0.108253
782.010435,0.200000,0.215058
782.043921,-0.025000,0.054486
782.077406,0.175000,0.073951
782.110890,0.325000,0.155624
782.144375,0.125000,0.143069
782.177859,0.500000,0.209165
782.211343,0.475000,0.302851
782.244826,0.925000,0.167239
782.278309,1.900000,0.093541
782.311792,2.650000,0.458939
782.345275,3.275000,0.405239
782.378758,3.875000,1.084190
782.412240,1.175000,0.406779
782.445722,-0.025000,0.054486
782.479204,0.475000,0.174553
782.512685,-0.075000,0.134048
782.546166,0.200000,0.079057
782.579647,-0.025000,0.073951
782.613128,0.525000,0.096014
782.646608,-0.075000,0.054486
782.680088,0.175000,0.073951
782.713568,0.150000,0.108972
782.747048,0.550000,0.363146
782.780527,-0.125000,0.054486
782.814006,0.400000,0.406202
782.847485,0.100000,0.122474
782.880963,0.125000,0.163459
782.914442,-0.050000,0.055902
782.947920,0.025000,0.102317
782.981397,0.150000,0.108972
783.014875,0.525000,0.113880
783.048352,0.025000,0.194856
783.081829,0.075000,0.096014
783.115306,0.150000,0.103078
783.148782,-0.075000,0.089268
783.182258,-0.200000,0.117260
783.215734,0.225000,0.041458
783.249209,-0.200000,0.035355
783.282685,0.350000,0.055902
783.316160,0.200000,0.093541
783.349635,0.775000,0.362931
783.383109,0.100000,0.266927
783.416583,-0.075000,0.113880
783.450057,0.000000,0.176777
783.483531,-0.050000,0.043301
783.517004,0.525000,0.216145
783.550477,-0.025000,0.064952
783.583950,0.550000,0.256174
783.617423,0.925000,0.350669
783.650895,0.525000,0.096014
783.684367,0.100000,0.079057
783.717839,-0.600000,0.141421
783.751311,-0.025000,0.073951
783.784782,0.250000,0.195256
783.818253,-0.075000,0.073951
783.851724,0.125000,0.054486
783.885194,0.650000,0.303109
783.918665,-0.125000,0.089268
783.952134,0.150000,0.055902
783.985604,0.075000,0.021651
784.019074,0.375000,0.155624
784.052543,0.450000,0.275000
784.086012,1.775000,0.073951
784.119480,2.433333,0.147196
784.152948,5.900000,0.836660
784.186416,5.675000,0.704783
784.219884,4.125000,0.730903
784.253352,1.250000,0.182003
784.286819,0.225000,0.138632
784.320286,0.300000,0.320156
784.353753,0.125000,0.124373
784.387219,0.175000,0.073951
784.420685,0.175000,0.188331
784.454151,-0.075000,0.081968
784.487617,-0.200000,0.154110
784.521082,0.050000,0.075000
784.554547,0.300000,0.079057
784.588012,-0.025000,0.089268
784.621477,0.225000,0.138632
784.654941,0.075000,0.054486
784.688405,0.150000,0.025000
784.721869,-0.100000,0.050000
784.755332,0.100000,0.162019
784.788795,0.225000,0.147373
784.822258,0.200000,0.079057
784.855721,0.500000,0.154110
784.889183,0.275000,0.188331
784.922646,0.125000,0.021651
784.956107,0.125000,0.021651
784.989569,-0.075000,0.129301
785.023030,-0.175000,0.096014
785.056491,-0.075000,0.041458
785.089952,0.500000,0.254951
785.123413,0.175000,0.108253
785.156873,-0.225000,0.041458
785.190333,0.250000,0.082916
785.223792,0.025000,0.081968
785.257252,0.050000,0.103078
785.290711,-0.125000,0.073951
785.324170,-0.075000,0.073951
785.357629,0.025000,0.054486
785.391087,0.150000,0.075000
785.424545,0.225000,0.096014
785.458003,0.125000,0.054486
785.491460,0.225000,0.204252
785.524918,0.225000,0.054486
785.558375,0.100000,0.035355
785.591831,0.150000,0.143614
785.625288,0.100000,0.106066
785.658744,0.225000,0.021651
785.692200,0.100000,0.145774
785.725655,0.550000,0.167705
785.759111,0.150000,0.055902
785.792566,0.450000,0.143614
785.826021,0.025000,0.041458
785.859475,-0.125000,0.073951
785.892930,0.425000,0.147373
785.926384,2.050000,0.541410
785.959837,5.375000,0.682253
785.993291,4.475000,0.701227
786.026744,6.175000,1.053195
786.060197,5.775000,0.682253
786.093649,1.825000,0.547009
786.127102,0.650000,0.207666
786.160554,0.825000,0.483962
786.194006,0.575000,0.320887
786.227457,0.125000,0.064952
786.260909,0.100000,0.093541
786.294360,0.450000,0.216506
786.327810,-0.125000,0.054486
786.361261,0.150000,0.055902
786.394711,0.050000,0.129904
786.428161,0.100000,0.079057
786.461611,0.500000,0.262202
786.495060,0.225000,0.124373
786.528509,0.050000,0.134629
786.561958,0.150000,0.082916
786.595407,0.125000,0.064952
786.628855,0.075000,0.064952
786.662303,-0.200000,0.086603
786.695751,0.000000,0.061237
786.729198,0.225000,0.096014
786.762645,0.250000,0.025000
786.796092,0.250000,0.090139
786.829539,0.100000,0.127475
786.862985,0.275000,0.389511
786.896431,0.350000,0.336341
786.929877,0.400000,0.093541
786.963323,0.325000,0.216145
786.996768,0.100000,0.086603
787.030213,0.075000,0.054486
787.063658,-0.200000,0.070711
787.097102,0.275000,0.134048
787.130547,-0.400000,0.061237
787.163991,-0.200000,0.070711
787.197434,-0.200000,0.061237
787.230878,0.275000,0.143069
787.264321,0.350000,0.256174
787.297764,-0.025000,0.073951
787.331206,0.150000,0.025000
787.364648,0.500000,0.196850
787.398090,0.175000,0.081968
787.431532,0.050000,0.025000
787.464974,-0.100000,0.061237
787.498415,0.200000,0.262202
787.531856,0.100000,0.061237
787.565296,0.050000,0.134629
787.598737,0.575000,0.119242
787.632177,0.475000,0.184983
787.665617,0.100000,0.183712
787.699056,0.175000,0.147373
787.732496,0.300000,0.220794
787.765935,0.650000,0.219374
787.799373,3.325000,0.283670
787.832812,7.300000,0.502494
787.866250,10.225000,0.672100
787.899688,9.800000,1.152172
787.933126,5.825000,1.135988
787.966563,1.800000,0.379144
788.000000,0.650000,0.182003
788.033437,0.075000,0.213234
788.066873,0.225000,0.113880
788.100310,0.175000,0.096014
788.133746,0.250000,0.043301
788.167181,0.375000,0.143069
788.200617,0.250000,0.103078
788.234052,0.375000,0.143069
788.267487,0.000000,0.259808
788.300921,0.175000,0.124373
788.334356,0.325000,0.089268
788.367790,0.050000,0.055902
788.401224,0.225000,0.089268
788.434657,0.025000,0.204252
788.468090,-0.075000,0.041458
788.501523,0.200000,0.061237
788.534956,0.275000,0.129301
788.568389,0.250000,0.082916
788.601821,0.275000,0.113880
788.635253,0.125000,0.081968
788.668684,0.050000,0.075000
788.702116,0.100000,0.070711
788.735547,0.100000,0.061237
788.768977,0.000000,0.079057
788.802408,0.450000,0.160078
788.835838,0.000000,0.061237
788.869268,0.325000,0.089268
788.902698,-0.050000,0.114564
788.936127,0.400000,0.136931
788.969556,0.125000,0.041458
789.002985,0.175000,0.054486
789.036414,0.075000,0.081968
789.069842,-0.050000,0.055902
789.103270,0.250000,0.134629
789.136698,0.175000,0.119242
789.170125,-0.100000,0.079057
789.203552,0.150000,0.082916
789.236979,0.350000,0.043301
789.270406,0.250000,0.134629
789.303832,0.400000,0.070711
789.337258,0.475000,0.096014
789.370684,-0.025000,0.129301
789.404110,0.275000,0.096014
789.437535,0.450000,0.147902
789.470960,0.350000,0.114564
789.504385,0.100000,0.061237
789.537809,0.250000,0.182003
789.571233,0.150000,0.043301
789.604657,1.100000,0.287228
789.638081,1.925000,0.799512
789.671504,5.325000,0.210283
789.704927,9.300000,0.362284
789.738350,14.775000,0.988291
789.771772,12.300000,0.742462
789.805195,5.125000,0.530772
789.838617,3.075000,0.822629
789.872038,0.575000,0.113880
789.905460,-0.475000,0.174553
789.938881,0.425000,0.216145
789.972302,-0.050000,0.103078
790.005722,-0.025000,0.081968
790.039143,0.075000,0.113880
790.072563,0.125000,0.054486
790.105982,0.075000,0.064952
790.139402,0.200000,0.070711
790.172821,-0.300000,0.061237
790.206240,0.175000,0.096014
790.239658,0.225000,0.041458
790.273077,0.475000,0.221853
790.306495,0.000000,0.150000
790.339913,0.775000,0.198037
790.373330,0.400000,0.180278
790.406747,0.075000,0.054486
790.440164,-0.025000,0.102317
790.473581,0.250000,0.114564
790.506997,0.225000,0.253414
790.540414,0.025000,0.064952
790.573829,0.000000,0.079057
790.607245,0.150000,0.025000
790.640660,0.050000,0.108972
790.674075,0.200000,0.093541
790.707490,0.525000,0.240767
790.740904,0.375000,0.054486
790.774319,0.400000,0.206155
790.807733,0.050000,0.055902
790.841146,0.025000,0.089268
790.874560,-0.200000,0.061237
790.907973,0.150000,0.134629
790.941385,0.575000,0.412879
790.974798,0.150000,0.075000
791.008210,0.200000,0.035355
791.041622,0.075000,0.108253
791.075034,0.350000,0.160078
791.108445,0.050000,0.025000
791.141856,0.325000,0.108253
791.175267,0.100000,0.289396
791.208678,0.075000,0.073951
791.242088,0.400000,0.262202
791.275498,0.325000,0.224653
791.308908,0.475000,0.041458
791.342317,0.275000,0.064952
791.375726,0.300000,0.122474
791.409135,0.325000,0.102317
791.442544,0.225000,0.207289
791.475952,1.025000,0.184983
791.509360,3.350000,0.593191
791.542768,11.125000,0.817294
791.576176,22.925000,2.383111
791.609583,32.000000,1.121940
791.642990,29.900000,1.445683
791.676396,10.325000,0.996478
791.709803,4.800000,0.993101
791.743209,0.925000,0.221853
791.776615,0.325000,0.119242
791.810020,0.425000,0.201168
791.843425,0.100000,0.145774
791.876830,-0.425000,0.143069
791.910235,0.625000,0.198037
791.943640,-0.025000,0.108253
791.977044,-0.225000,0.054486
792.010448,-0.025000,0.089268
792.043851,0.450000,0.134629
792.077254,-0.025000,0.064952
792.110658,0.375000,0.240767
792.144060,0.125000,0.096014
792.177463,0.075000,0.041458
792.210865,0.250000,0.134629
792.244267,0.250000,0.082916
792.277668,0.350000,0.114564
792.311070,0.050000,0.090139
792.344471,0.275000,0.096014
792.377872,0.150000,0.143614
792.411272,0.125000,0.041458
792.444672,0.025000,0.041458
792.478072,0.600000,0.333542
792.511472,0.325000,0.198037
792.544871,0.350000,0.108972
792.578271,-0.100000,0.093541
792.611669,0.200000,0.145774
792.645068,0.000000,0.061237
792.678466,0.250000,0.147902
792.711864,0.075000,0.073951
792.745262,0.375000,0.296595
792.778659,0.250000,0.090139
792.812056,0.200000,0.150000
792.845453,0.325000,0.230149
792.878850,0.425000,0.221853
792.912246,0.225000,0.064952
792.945642,0.425000,0.227418
792.979038,0.175000,0.096014
793.012433,0.625000,0.339807
793.045829,0.400000,0.154110
793.079223,0.025000,0.081968
793.112618,-0.100000,0.061237
793.146012,0.325000,0.096014
793.179406,-0.100000,0.035355
793.212800,0.700000,0.548862
793.246194,0.400000,0.127475
793.279587,0.425000,0.204252
793.312980,0.600000,0.127475
793.346373,0.700000,0.231840
793.379765,4.025000,0.872049
793.413157,9.025000,0.544719
793.446549,21.075000,0.613774
793.479940,32.525000,1.671592
793.513332,30.625000,1.078990
793.546723,15.625000,0.746136
793.580113,6.300000,0.577711
793.613504,2.150000,0.447912
793.646894,0.425000,0.167239
793.680284,0.700000,0.215058
793.713673,0.275000,0.155624
793.747062,0.175000,0.064952
793.780451,0.125000,0.073951
793.813840,0.600000,0.086603
793.847228,0.125000,0.021651
793.880617,0.250000,0.143614
793.914004,0.300000,0.183712
793.947392,-0.225000,0.081968
793.980779,-0.025000,0.102317
794.014166,-0.300000,0.061237
794.047553,0.125000,0.054486
794.080940,0.275000,0.119242
794.114326,0.325000,0.021651
794.147712,0.225000,0.113880
794.181097,0.275000,0.102317
794.214483,0.150000,0.025000
794.247868,0.250000,0.055902
794.281252,0.225000,0.143069
794.314637,-0.275000,0.054486
794.348021,0.025000,0.064952
794.381405,0.275000,0.178098
794.414788,0.700000,0.196850
794.448172,0.200000,0.070711
794.481555,0.500000,0.325960
794.514938,0.125000,0.089268
794.548320,0.125000,0.081968
794.581702,0.100000,0.145774
794.615084,0.300000,0.093541
794.648466,0.275000,0.147373
794.681847,0.250000,0.075000
794.715228,0.025000,0.167239
794.748609,1.150000,0.235850
794.781990,-0.625000,0.408312
794.815370,1.675000,0.658953
794.848750,0.925000,0.480072
794.882129,0.425000,0.300780
794.915509,0.325000,0.108253
794.948888,-0.250000,0.075000
794.982267,0.075000,0.054486
795.015645,-0.075000,0.129301
795.049023,0.625000,0.265460
795.082401,0.650000,0.536773
795.115779,0.175000,0.108253
795.149156,0.125000,0.096014
795.182534,0.600000,0.122474
795.215910,0.350000,0.103078
795.249287,3.500000,0.513566
795.282663,9.975000,0.965256
795.316039,23.825000,1.262129
795.349415,40.600000,1.854724
795.382790,58.366667,2.767972
795.416165,43.450000,1.997968
795.449540,15.800000,1.698529
795.482915,4.475000,0.564994
795.516289,0.700000,0.183712
795.549663,0.725000,0.474835
795.583037,0.050000,0.043301
795.616410,0.375000,0.267804
795.649783,-0.150000,0.075000
795.683156,0.150000,0.103078
795.716529,0.275000,0.124373
795.749901,0.000000,0.093541
795.783273,0.225000,0.041458
795.816645,-0.075000,0.143069
795.850016,0.250000,0.195256
795.883387,0.125000,0.089268
795.916758,-0.025000,0.041458
795.950129,-0.075000,0.073951
795.983499,0.100000,0.035355
796.016869,0.075000,0.194856
796.050239,-0.125000,0.089268
796.083608,0.200000,0.093541
796.116977,-0.125000,0.054486
796.150346,-0.250000,0.108972
796.183714,0.000000,0.035355
796.217083,0.225000,0.073951
796.250451,0.200000,0.150000
796.283818,0.200000,0.035355
796.317186,0.300000,0.165831
796.350553,0.200000,0.093541
796.383920,-0.125000,0.064952
796.417286,0.900000,0.262202
796.450653,0.425000,0.306951
796.484019,0.375000,0.213234
796.517384,0.175000,0.124373
796.550750,0.125000,0.021651
796.584115,0.325000,0.129301
796.617480,0.100000,0.111803
796.650844,0.100000,0.086603
796.684209,0.275000,0.167239
796.717573,0.250000,0.275000
796.750936,0.500000,0.203101
796.784300,0.050000,0.090139
796.817663,0.350000,0.311247
796.851026,0.200000,0.070711
796.884388,-0.300000,0.070711
796.917751,0.250000,0.082916
796.951113,0.075000,0.064952
796.984474,0.750000,0.410030
797.017836,0.025000,0.113880
797.051197,0.200000,0.180278
797.084558,0.700000,0.231840
797.117918,0.775000,0.155624
797.151279,2.825000,0.464186
797.184639,11.733333,0.601387
797.217998,23.133333,1.186030
797.251358,54.475000,1.453175
797.284717,58.775000,1.879952
797.318076,36.833333,1.348301
797.351434,13.025000,0.805741
797.384793,4.500000,0.462331
797.418151,0.975000,0.147373
797.451508,0.200000,0.000000
797.484866,0.175000,0.119242
797.518223,0.325000,0.170935
797.551580,0.125000,0.138632
797.584936,0.150000,0.043301
797.618292,0.150000,0.114564
797.651648,0.425000,0.194856
797.685004,0.300000,0.247487
797.718360,0.350000,0.090139
797.751715,0.500000,0.183712
797.785069,0.375000,0.096014
797.818424,0.050000,0.025000
797.851778,0.125000,0.054486
797.885132,-0.250000,0.055902
797.918486,0.825000,0.216145
797.951839,0.775000,0.392707
797.985192,0.275000,0.108253
798.018545,0.650000,0.225000
798.051898,0.350000,0.082916
798.085250,0.075000,0.163459
798.118602,0.075000,0.073951
798.151954,0.350000,0.188746
798.185305,0.525000,0.178098
798.218656,0.575000,0.316968
798.252007,0.425000,0.064952
798.285357,0.650000,0.227761
798.318708,0.200000,0.106066
798.352057,0.525000,0.151554
798.385407,0.775000,0.369755
798.418756,0.700000,0.437321
798.452106,0.575000,0.163459
798.485454,0.325000,0.253414
798.518803,0.425000,0.089268
798.552151,0.900000,0.229129
798.585499,0.250000,0.114564
798.618847,0.200000,0.215058
798.652194,0.075000,0.081968
798.685541,0.500000,0.050000
798.718888,0.575000,0.417395
798.752234,0.150000,0.134629
798.785580,0.750000,0.311247
798.818926,0.250000,0.125000
798.852272,0.250000,0.108972
798.885617,-0.125000,0.108253
798.918962,0.975000,0.314990
798.952307,0.825000,0.496708
798.985651,0.775000,0.332368
799.018996,0.900000,0.106066
799.052339,3.875000,0.556074
799.085683,14.900000,0.353553
799.119026,47.666667,1.174911
799.152369,78.233333,0.536579
799.185712,100.675000,2.626160
799.219054,60.175000,0.771666
799.252397,21.125000,2.302818
799.285738,4.125000,0.468208
799.319080,0.750000,0.343693
799.352421,0.625000,0.240767
799.385762,0.325000,0.021651
799.419103,0.300000,0.187083
799.452443,0.275000,0.124373
799.485783,0.100000,0.158114
799.519123,0.625000,0.296595
799.552463,0.075000,0.054486
799.585802,0.200000,0.086603
799.619141,0.250000,0.125000
799.652480,-0.300000,0.070711
799.685818,-0.200000,0.070711
799.719156,0.250000,0.082916
799.752494,0.500000,0.136931
799.785831,0.275000,0.054486
799.819169,0.525000,0.260708
799.852506,0.250000,0.108972
799.885842,-0.050000,0.075000
799.919179,0.275000,0.245904
799.952515,0.300000,0.165831
799.985850,0.500000,0.176777
800.019186,0.375000,0.134048
800.052521,0.425000,0.113880
800.085856,-0.175000,0.064952
800.119191,0.850000,0.277263
800.152525,0.650000,0.129904
800.185859,0.575000,0.147373
800.219193,0.325000,0.184983
800.252526,0.300000,0.111803
800.285859,0.275000,0.155624
800.319192,0.225000,0.143069
800.352525,0.375000,0.108253
800.385857,0.650000,0.309233
800.419189,0.475000,0.064952
800.452521,0.525000,0.064952
800.485852,0.350000,0.108972
800.519183,0.600000,0.242384
800.552514,0.725000,0.374792
800.585844,-0.325000,0.298695
800.619175,0.750000,0.334477
800.652505,0.525000,0.129301
800.685834,0.700000,0.220794
800.719164,0.225000,0.081968
800.752493,0.250000,0.160078
800.785821,0.550000,0.213600
800.819150,0.550000,0.090139
800.852478,0.250000,0.055902
800.885806,0.500000,0.050000
800.919134,1.125000,0.207289
800.952461,3.950000,0.776611
800.985788,18.733333,1.045427
801.019115,71.550000,3.222674
801.052441,155.375000,1.375398
801.085767,227.700000,6.907605
801.119093,205.325000,4.277174
801.152419,65.925000,2.895552
801.185744,16.525000,0.907176
801.219069,3.725000,0.288043
801.252394,0.350000,0.160078
801.285718,0.175000,0.021651
801.319042,0.300000,0.176777
801.352366,-0.100000,0.079057
801.385690,0.575000,0.108253
801.419013,0.175000,0.462838
801.452336,0.725000,0.041458
801.485658,0.425000,0.523659
801.518981,1.175000,0.403694
801.552303,0.950000,0.630971
801.585625,0.625000,0.369755
801.618946,0.225000,0.167239
801.652267,0.100000,0.127475
801.685588,0.950000,0.336341
801.718909,0.350000,0.108972
801.752229,0.525000,0.191621
801.785549,0.450000,0.160078
801.818869,0.250000,0.055902
801.852188,0.250000,0.400780
801.885507,0.350000,0.082916
801.918826,0.900000,0.379144
801.952145,0.150000,0.134629
801.985463,0.625000,0.188331
802.018781,0.575000,0.151554
802.052099,0.425000,0.174553
802.085416,0.300000,0.257391
802.118733,0.125000,0.073951
802.152050,0.200000,0.079057
802.185366,-0.050000,0.103078
802.218683,0.650000,0.246221
802.251999,0.350000,0.090139
802.285314,-0.025000,0.073951
802.318630,0.300000,0.093541
802.351945,0.275000,0.054486
802.385259,0.625000,0.374792
802.418574,0.575000,0.272431
802.451888,0.950000,0.143614
802.485202,0.300000,0.086603
802.518515,-0.050000,0.129904
802.551829,0.300000,0.079057
802.585142,1.050000,0.475000
802.618454,0.325000,0.102317
802.651767,0.475000,0.221853
802.685079,-0.150000,0.114564
802.718391,0.675000,0.285865
802.751702,0.325000,0.204252
802.785013,1.025000,0.270127
802.818324,1.125000,0.155624
802.851635,2.350000,0.487981
802.884945,7.225000,0.523659
802.918255,38.625000,1.371302
802.951565,144.550000,1.704956
802.984874,217.500000,0.428661
803.018184,270.933333,7.703922
803.051492,190.150000,2.839564
803.084801,43.475000,0.779724
803.118109,9.325000,0.991448
803.151417,1.325000,0.290205
803.184725,0.950000,0.453459
803.218032,0.725000,0.178098
803.251339,0.825000,0.357727
803.284646,0.225000,0.021651
803.317953,0.175000,0.073951
803.351259,0.050000,0.075000
803.384565,-0.125000,0.054486
803.417870,0.475000,0.119242
803.451176,0.600000,0.196850
803.484481,0.325000,0.124373
803.517786,0.375000,0.191621
803.551090,1.000000,0.695521
803.584394,0.350000,0.201556
803.617698,0.550000,0.114564
803.651002,0.750000,0.396074
803.684305,0.600000,0.061237
803.717608,0.425000,0.155624
803.750910,0.625000,0.389511
803.784213,1.475000,0.296595
803.817515,1.375000,0.347086
803.850817,0.925000,0.511585
803.884118,1.150000,0.317214
803.917419,1.200000,0.497494
803.950720,0.400000,0.136931
803.984021,1.075000,0.341641
804.017321,1.125000,0.296595
804.050621,1.125000,0.461485
804.083921,0.600000,0.117260
804.117220,0.650000,0.207666
804.150519,0.675000,0.243349
804.183818,1.175000,0.207289
804.217117,0.375000,0.238157
804.250415,0.525000,0.260708
804.283713,0.775000,0.213234
804.317011,0.350000,0.134629
804.350308,0.850000,0.167705
804.383605,0.675000,0.138632
804.416902,0.375000,0.124373
804.450198,0.575000,0.129301
804.483494,0.725000,0.263095
804.516790,0.975000,0.283670
804.550086,0.300000,0.050000
804.583381,0.350000,0.152069
804.616676,0.975000,0.267804
804.649971,1.200000,0.666146
804.683265,0.925000,0.412879
804.716559,0.775000,0.221853
804.749853,1.650000,0.090139
804.783146,2.350000,0.487981
804.816440,9.250000,1.005298
804.849732,50.133333,2.676129
804.883025,189.800000,7.629630
804.916317,335.175000,11.033663
804.949609,381.675000,3.460378
804.982901,221.333333,3.315557
805.016192,51.800000,2.961630
805.049484,11.500000,1.406680
805.082774,1.450000,0.361421
805.116065,1.700000,0.257391
805.149355,0.425000,0.221853
805.182645,0.725000,0.207289
805.215935,1.075000,0.198037
805.249224,0.375000,0.089268
805.282513,0.175000,0.129301
805.315802,0.650000,0.192029
805.349090,0.575000,0.163459
805.382378,0.975000,0.314990
805.415666,0.650000,0.147902
805.448954,0.950000,0.178536
805.482241,0.400000,0.183712
805.515528,0.650000,0.055902
805.548815,0.800000,0.351781
805.582101,0.475000,0.178098
805.615387,0.575000,0.201168
805.648673,0.800000,0.234521
805.681958,0.625000,0.433554
805.715243,0.700000,0.127475
805.748528,1.275000,0.064952
805.781813,0.550000,0.265754
805.815097,1.925000,0.774092
805.848381,1.525000,0.361205
805.881665,1.350000,0.343693
805.914948,0.775000,0.238157
805.948231,0.475000,0.129301
805.981514,0.725000,0.151554
806.014796,1.225000,0.248433
806.048079,0.700000,0.209165
806.081360,0.625000,0.089268
806.114642,1.150000,0.354436
806.147923,0.475000,0.124373
806.181204,0.400000,0.079057
806.214485,0.175000,0.119242
806.247765,0.700000,0.438748
806.281046,0.350000,0.055902
806.314325,0.600000,0.183712
806.347605,0.700000,0.079057
806.380884,0.150000,0.268095
806.414163,1.675000,0.143069
806.447441,1.100000,0.308221
806.480720,0.275000,0.143069
806.513998,0.750000,0.160078
806.547275,1.150000,0.265754
806.580553,1.025000,0.108253
806.613830,0.450000,0.114564
806.647107,1.375000,0.472196
806.680383,1.150000,0.279508
806.713659,2.500000,0.475657
806.746935,7.366667,0.167083
806.780211,54.425000,1.780581
806.813486,234.733333,1.245659
806.846761,560.875000,11.708564
806.880036,720.400000,9.336621
806.913310,544.050000,10.895441
806.946584,149.925000,5.672122
806.979858,19.533333,1.243148
807.013132,6.525000,0.721435
807.046405,2.250000,0.755397
807.079678,0.675000,0.147373
807.112951,0.950000,0.235850
807.146223,0.575000,0.290205
807.179495,0.000000,0.136931
807.212767,0.575000,0.505439
807.246038,0.750000,0.235850
807.279309,0.700000,0.183712
807.312580,0.800000,0.310242
807.345850,1.350000,0.511737
807.379121,0.550000,0.230489
807.412390,0.725000,0.238157
807.445660,0.275000,0.089268
807.478929,1.600000,0.715891
807.512198,0.650000,0.103078
807.545467,1.525000,0.421863
807.578735,0.850000,0.213600
807.612004,0.100000,0.293684
807.645271,0.625000,0.163459
807.678539,0.575000,0.263095
807.711806,1.575000,0.424816
807.745073,0.675000,0.147373
807.778340,1.150000,0.368273
807.811606,2.200000,0.196850
807.844872,1.200000,0.231840
807.878138,2.025000,0.506674
807.911403,1.225000,0.155624
807.944668,0.975000,0.298695
807.977933,0.150000,0.143614
808.011197,0.700000,0.117260
808.044462,1.025000,0.227418
808.077725,0.700000,0.127475
808.110989,0.775000,0.073951
808.144252,1.150000,0.219374
808.177515,1.375000,0.386288
808.210778,1.975000,0.064952
808.244040,0.950000,0.225000
808.277302,0.700000,0.212132
808.310564,0.750000,0.178536
808.343826,1.675000,0.204252
808.377087,0.900000,0.196850
808.410348,1.600000,0.237171
808.443608,0.900000,0.136931
808.476869,0.675000,0.113880
808.510129,0.900000,0.398434
808.543388,2.975000,0.489100
808.576648,1.350000,0.201556
808.609907,1.775000,0.248433
808.643165,2.175000,0.064952
808.676424,5.475000,0.454663
808.709682,29.625000,0.608661
808.742940,204.275000,8.460893
808.776197,709.325000,14.015901
808.809455,1021.825000,14.332584
808.842712,982.125000,4.358953
808.875968,475.933333,10.798515
808.909225,67.250000,1.396536
808.942481,17.675000,0.937667
808.975736,3.200000,0.407738
809.008992,2.250000,0.458939
809.042247,0.800000,0.061237
809.075502,0.525000,0.096014
809.108756,-0.250000,0.235850
809.142011,1.275000,0.328586
809.175265,1.100000,0.308221
809.208518,0.950000,0.114564
809.241772,0.775000,0.134048
809.275025,1.300000,0.117260
809.308277,1.600000,0.136931
809.341530,1.275000,0.178098
809.374782,1.300000,0.242384
809.408034,2.275000,0.352447
809.441285,1.450000,0.265754
809.474536,1.975000,0.198037
809.507787,1.700000,0.291548
809.541038,1.750000,0.394493
809.574288,1.675000,0.477461
809.607538,1.250000,0.134629
809.640788,1.550000,0.286138
809.674037,1.500000,0.206155
809.707286,2.375000,0.270127
809.740535,1.725000,0.429207
809.773783,3.775000,0.610712
809.807032,3.125000,0.267804
809.840279,1.500000,0.136931
809.873527,1.325000,0.446339
809.906774,1.625000,0.534293
809.940021,1.750000,0.427931
809.973268,2.400000,0.454148
810.006514,2.200000,0.564579
810.039760,1.200000,0.079057
810.073006,2.950000,0.182003
810.106251,2.150000,0.167705
810.139497,2.450000,0.487981
810.172741,2.225000,0.324760
810.205986,2.125000,0.379761
810.239230,1.775000,0.129301
810.272474,3.300000,0.348210
810.305718,3.550000,0.403887
810.338961,4.125000,0.512805
810.372204,3.500000,0.715891
810.405447,2.900000,0.577711
810.438689,5.125000,0.374792
810.471931,3.625000,0.129301
810.505173,5.250000,0.834041
810.538414,5.600000,0.488621
810.571656,6.550000,0.517808
810.604897,8.500000,0.273861
810.638137,14.975000,0.983219
810.671377,63.700000,0.424264
810.704617,460.433333,4.711467
810.737857,1528.300000,15.958971
810.771096,1978.700000,10.159232
810.804335,1655.425000,12.039278
810.837574,713.400000,11.531966
810.870813,113.800000,2.782086
810.904051,19.400000,0.407738
810.937288,3.725000,0.399022
810.970526,1.225000,0.442118
811.003763,1.075000,0.465531
811.037000,1.375000,0.549289
811.070237,0.425000,0.314990
811.103473,1.175000,0.379761
811.136709,0.100000,0.203101
811.169945,0.400000,0.392110
811.203180,0.525000,0.064952
811.236415,0.850000,0.248747
811.269650,0.000000,0.165831
811.302884,0.475000,0.389511
811.336119,0.025000,0.073951
811.369352,1.225000,0.330483
811.402586,1.875000,0.399022
811.435819,3.425000,1.293916
811.469052,3.733333,1.171182
811.502285,0.666667,0.632785
811.535517,1.200000,0.358818
811.568749,2.000000,0.407738
811.601981,2.700000,0.398434
811.635212,1.375000,0.570499
811.668443,1.175000,0.528412
811.701674,1.750000,0.192029
811.734905,2.200000,0.407738
811.768135,3.500000,0.734847
811.801365,1.875000,0.391112
811.834594,2.300000,0.813173
811.867824,1.000000,0.183712
811.901053,1.100000,0.460977
811.934281,0.800000,0.242384
811.967510,0.975000,0.235518
812.000738,0.800000,0.434454
812.033965,0.700000,0.242384
812.067193,0.675000,0.155624
812.100420,1.200000,0.348210
812.133647,1.725000,0.460129
812.166873,-0.200000,0.551135
812.200099,0.250000,0.108972
812.233325,0.825000,0.274716
812.266551,0.725000,0.216145
812.299776,1.100000,0.337268
812.333001,1.200000,0.322102
812.366226,1.375000,0.481372
812.399450,0.750000,0.334477
812.432674,1.225000,0.260708
812.465898,0.675000,0.456036
812.499121,1.175000,0.108253
812.532345,1.625000,0.320887
812.565567,1.625000,0.564994
812.598790,2.925000,0.434993
812.632012,13.275000,0.598305
812.665234,117.300000,2.220079
812.698456,502.350000,10.400150
812.731677,872.025000,7.193867
812.764898,783.733333,4.104469
812.798119,381.275000,3.015040
812.831339,52.766667,1.493876
812.864559,10.550000,0.511737
812.897779,3.100000,0.297909
812.930998,1.350000,0.336341
812.964217,0.375000,0.224653
812.997436,0.325000,0.129301
813.030655,0.500000,0.257391
813.063873,0.950000,0.550568
813.097091,0.550000,0.275000
813.130308,-0.175000,0.194856
813.163526,1.050000,0.261008
813.196743,0.325000,0.163459
813.229959,0.400000,0.176777
813.263176,0.000000,0.061237
813.296392,0.350000,0.311247
813.329607,0.375000,0.188331
813.362823,0.375000,0.143069
813.396038,0.250000,0.275000
813.429253,0.025000,0.155624
813.462467,0.250000,0.419076
813.495682,0.450000,0.340037
813.528895,0.075000,0.096014
813.562109,0.550000,0.325000
813.595322,-0.025000,0.113880
813.628535,0.325000,0.232849
813.661748,0.500000,0.280624
813.694960,0.475000,0.308980
813.728172,0.050000,0.025000
813.761384,-0.075000,0.108253
813.794596,-0.375000,0.178098
813.827807,-0.200000,0.136931
813.861017,0.525000,0.265460
813.894228,0.025000,0.073951
813.927438,0.475000,0.178098
813.960648,0.400000,0.079057
813.993858,0.200000,0.234521
814.027067,-0.025000,0.089268
814.060276,-0.075000,0.054486
814.093485,0.075000,0.281458
814.126693,0.375000,0.238157
814.159901,0.900000,0.523211
814.193109,-0.275000,0.124373
814.226316,0.900000,0.280624
814.259523,0.200000,0.176777
814.292730,0.675000,0.324760
814.325936,0.175000,0.073951
814.359143,0.375000,0.151554
814.392348,0.375000,0.167239
814.425554,0.575000,0.371441
814.458759,0.300000,0.154110
814.491964,0.225000,0.458769
814.525169,0.525000,0.167239
814.558373,0.675000,0.601431
814.591577,0.225000,0.232849
814.624781,0.200000,0.150000
814.657984,0.900000,0.358818
