#{
#    "background_file": "Backgrounds\\\\bg_787.999nm_16bin_197st_244en_10.0s_110g_4x_1_seq.txt",
#    "ccd_image_settings": [
#        1,
#        16,
#        1,
#        1600,
#        197,
#        244
#    ],
#    "ccd_temperature": "-88",
#    "cdRatios": {
#        "mean": 0.9408255679120396,
#        "std": 0.005960127183599756
#    },
#    "center_lambda": 788.0,
#    "comments": "",
#    "dark_region": 0.3343937553151225,
#    "date": "11/17/19 15:03:04PM",
#    "eff_field": 1.5,
#    "exposure": 10.0,
#    "fel_lambda": "15.0",
#    "fel_pol": "H",
#    "fel_pulses": 40,
#    "fel_pyro_cal": "0.017",
#    "fel_reprate": "1.07",
#    "fel_transmission": "1.0",
#    "fel_transmission_fits": {
#        "A": 1.0,
#        "C": 0.0,
#        "Mu": 0.0
#    },
#    "fieldInt": {
#        "mean": 8888.3265,
#        "std": 513.546831479882
#    },
#    "fieldStrength": {
#        "mean": 43.23856818181818,
#        "std": 1.2489526074844801
#    },
#    "fpTime": {
#        "mean": 1.0233262494001893,
#        "std": 0.06124310377591207
#    },
#    "gain": 110,
#    "grating": 3,
#    "images_in_sequence": [
#        "hsg_SpotD_crystal16_a00_HAna245.txt",
#        "hsg_SpotD_crystal16_a00_HAna246.txt",
#        "hsg_SpotD_crystal16_a00_HAna247.txt",
#        "hsg_SpotD_crystal16_a00_HAna248.txt"
#    ],
#    "nir_lambda": "820.9918",
#    "nir_pola": "00",
#    "nir_polg": "0",
#    "nir_power": "100.0",
#    "pulseEnergies": {
#        "mean": 1.8954772727272728,
#        "std": 0.11949109614454198
#    },
#    "pyroVoltage": {
#        "mean": 0.11857056059075677,
#        "std": 0.008114616541209634
#    },
#    "rotatorAngle": 270.0,
#    "sample_Temp": "58",
#    "sample_name": "L001218.C3",
#    "series": "SpotD_16_00",
#    "slits": "60",
#    "spec_step": "",
#    "window_trans": 0.92,
#    "y_max": 2,
#    "y_min": 1
#}
#
#
#
#
#
#
#
#
#
#
#
#
#
#
#
#
#
#
#
#
#
#
#
#
#
#
Wavelength,Signal,error
nm,arb. u.,arb.u.
Wavelength,SpotD_16_00,error
761.200217,0.275000,0.227418
761.233859,-0.025000,0.041458
761.267500,0.225000,0.054486
761.301141,0.075000,0.134048
761.334781,0.150000,0.055902
761.368422,-0.225000,0.108253
761.402062,0.025000,0.021651
761.435702,-0.275000,0.129301
761.469342,-0.175000,0.041458
761.502981,0.025000,0.064952
761.536620,0.075000,0.073951
761.570259,-0.200000,0.093541
761.603898,0.125000,0.265460
761.637537,-0.025000,0.143069
761.671175,0.025000,0.163459
761.704813,0.275000,0.240767
761.738451,0.025000,0.041458
761.772088,-0.050000,0.055902
761.805726,0.375000,0.361205
761.839363,-0.050000,0.075000
761.873000,-0.075000,0.288043
761.906636,-0.000000,0.079057
761.940273,0.125000,0.073951
761.973909,0.075000,0.041458
762.007545,0.650000,0.227761
762.041180,-0.250000,0.075000
762.074816,0.200000,0.035355
762.108451,0.350000,0.160078
762.142086,0.475000,0.324760
762.175720,0.150000,0.075000
762.209355,0.375000,0.337963
762.242989,0.025000,0.089268
762.276623,0.225000,0.129301
762.310257,0.450000,0.328824
762.343890,-0.200000,0.061237
762.377524,0.125000,0.163459
762.411157,0.125000,0.134048
762.444789,0.250000,0.114564
762.478422,0.200000,0.203101
762.512054,0.050000,0.043301
762.545686,0.150000,0.175000
762.579318,0.400000,0.289396
762.612950,0.175000,0.124373
762.646581,0.175000,0.267804
762.680212,0.125000,0.138632
762.713843,1.250000,0.892679
762.747474,0.500000,0.276134
762.781104,0.300000,0.353553
762.814734,-0.500000,0.061237
762.848364,-0.150000,0.114564
762.881994,-0.150000,0.055902
762.915623,0.525000,0.207289
762.949252,0.225000,0.147373
762.982881,0.050000,0.114564
763.016510,0.500000,0.220794
763.050139,0.100000,0.154110
763.083767,-0.100000,0.061237
763.117395,0.150000,0.103078
763.151023,0.200000,0.050000
763.184650,0.650000,0.227761
763.218277,-0.250000,0.103078
763.251904,0.025000,0.147373
763.285531,0.200000,0.079057
763.319158,0.150000,0.075000
763.352784,0.050000,0.082916
763.386410,0.525000,0.369755
763.420036,0.850000,0.629980
763.453661,1.150000,0.219374
763.487287,0.400000,0.308221
763.520912,-0.500000,0.302076
763.554537,0.200000,0.111803
763.588161,-0.200000,0.061237
763.621786,-0.025000,0.064952
763.655410,0.300000,0.061237
763.689034,-0.050000,0.251247
763.722657,0.400000,0.266927
763.756281,0.100000,0.061237
763.789904,-0.075000,0.089268
763.823527,0.425000,0.489100
763.857150,-0.100000,0.061237
763.890772,-0.175000,0.096014
763.924394,0.225000,0.207289
763.958016,0.350000,0.160078
763.991638,0.675000,0.296595
764.025260,0.450000,0.152069
764.058881,0.300000,0.093541
764.092502,0.925000,0.836193
764.126123,0.333333,0.073598
764.159743,0.066667,0.040825
764.193363,0.875000,0.613774
764.226983,0.375000,0.129301
764.260603,0.175000,0.054486
764.294223,0.000000,0.122474
764.327842,0.450000,0.369966
764.361461,0.225000,0.129301
764.395080,0.025000,0.021651
764.428699,-0.100000,0.150000
764.462317,0.200000,0.093541
764.495935,-0.075000,0.021651
764.529553,0.200000,0.262202
764.563170,0.300000,0.000000
764.596788,0.425000,0.119242
764.630405,0.050000,0.134629
764.664022,-0.100000,0.061237
764.697638,0.200000,0.111803
764.731255,0.750000,0.493077
764.764871,0.025000,0.096014
764.798487,-0.100000,0.079057
764.832103,0.050000,0.103078
764.865718,0.150000,0.075000
764.899333,0.275000,0.119242
764.932948,-0.100000,0.061237
764.966563,-0.025000,0.064952
765.000177,0.325000,0.240767
765.033792,0.325000,0.198037
765.067406,0.225000,0.143069
765.101019,0.125000,0.073951
765.134633,-0.175000,0.054486
765.168246,0.600000,0.247487
765.201859,0.200000,0.127475
765.235472,0.400000,0.196850
765.269084,0.250000,0.075000
765.302697,-0.050000,0.075000
765.336309,0.150000,0.043301
765.369920,0.175000,0.073951
765.403532,0.100000,0.061237
765.437143,-0.250000,0.025000
765.470754,0.325000,0.054486
765.504365,0.400000,0.136931
765.537976,0.175000,0.096014
765.571586,0.550000,0.420565
765.605196,-0.050000,0.055902
765.638806,0.050000,0.025000
765.672416,0.350000,0.275000
765.706025,0.150000,0.043301
765.739634,0.175000,0.102317
765.773243,0.300000,0.215058
765.806851,0.125000,0.073951
765.840460,0.350000,0.195256
765.874068,0.050000,0.055902
765.907676,-0.175000,0.041458
765.941284,0.475000,0.064952
765.974891,0.075000,0.124373
766.008498,-0.075000,0.089268
766.042105,0.450000,0.334477
766.075712,-0.200000,0.079057
766.109318,0.025000,0.124373
766.142924,-0.025000,0.041458
766.176530,-0.075000,0.143069
766.210136,0.050000,0.364863
766.243741,0.475000,0.272431
766.277347,0.150000,0.103078
766.310951,0.050000,0.125000
766.344556,0.425000,0.339807
766.378161,0.300000,0.122474
766.411765,-0.250000,0.075000
766.445369,0.275000,0.134048
766.478973,-0.175000,0.021651
766.512576,0.175000,0.138632
766.546179,-0.050000,0.055902
766.579782,0.075000,0.221853
766.613385,0.375000,0.184983
766.646988,-0.325000,0.064952
766.680590,0.125000,0.089268
766.714192,0.775000,0.501716
766.747794,0.050000,0.163936
766.781395,0.150000,0.143614
766.814996,-0.325000,0.021651
766.848597,0.025000,0.096014
766.882198,0.100000,0.050000
766.915799,0.250000,0.090139
766.949399,0.125000,0.081968
766.982999,0.100000,0.050000
767.016599,0.275000,0.341641
767.050198,0.250000,0.090139
767.083798,0.050000,0.055902
767.117397,0.075000,0.041458
767.150996,0.100000,0.061237
767.184594,-0.175000,0.267804
767.218193,0.325000,0.263095
767.251791,-0.075000,0.064952
767.285389,-0.250000,0.043301
767.318986,0.075000,0.134048
767.352583,0.200000,0.136931
767.386181,0.050000,0.055902
767.419777,-0.200000,0.079057
767.453374,0.350000,0.055902
767.486970,-0.325000,0.064952
767.520567,0.300000,0.127475
767.554162,0.050000,0.108972
767.587758,0.425000,0.113880
767.621353,0.275000,0.102317
767.654949,0.150000,0.082916
767.688543,0.775000,0.364649
767.722138,0.300000,0.187083
767.755732,0.175000,0.089268
767.789327,0.175000,0.151554
767.822921,-0.000000,0.209165
767.856514,0.450000,0.388104
767.890108,0.225000,0.081968
767.923701,0.250000,0.108972
767.957294,0.200000,0.061237
767.990886,0.325000,0.089268
768.024479,0.575000,0.238157
768.058071,0.325000,0.198037
768.091663,-0.200000,0.079057
768.125255,0.350000,0.219374
768.158846,0.075000,0.041458
768.192437,-0.150000,0.082916
768.226028,-0.225000,0.073951
768.259619,0.200000,0.061237
768.293209,0.275000,0.255869
768.326799,0.400000,0.297909
768.360389,-0.075000,0.102317
768.393979,0.325000,0.096014
768.427568,0.150000,0.075000
768.461158,0.100000,0.035355
768.494747,-0.050000,0.108972
768.528335,0.125000,0.108253
768.561924,0.350000,0.055902
768.595512,0.375000,0.267804
768.629100,0.200000,0.079057
768.662688,0.200000,0.122474
768.696275,0.100000,0.117260
768.729862,0.025000,0.147373
768.763449,0.075000,0.163459
768.797036,-0.000000,0.093541
768.830623,0.700000,0.410792
768.864209,0.000000,0.061237
768.897795,-0.025000,0.041458
768.931381,0.400000,0.093541
768.964966,-0.225000,0.041458
768.998551,0.325000,0.096014
769.032136,0.025000,0.198037
769.065721,-0.025000,0.073951
769.099305,0.100000,0.176777
769.132890,-0.225000,0.054486
769.166474,0.350000,0.090139
769.200057,0.125000,0.113880
769.233641,0.000000,0.093541
769.267224,-0.025000,0.064952
769.300807,-0.350000,0.114564
769.334390,0.050000,0.090139
769.367972,0.275000,0.073951
769.401555,-0.150000,0.075000
769.435137,0.050000,0.182003
769.468718,0.025000,0.021651
769.502300,0.125000,0.081968
769.535881,-0.175000,0.089268
769.569462,-0.125000,0.108253
769.603043,-0.250000,0.043301
769.636623,0.375000,0.191621
769.670204,0.575000,0.324760
769.703784,0.700000,0.369121
769.737364,0.850000,0.305164
769.770943,0.575000,0.314990
769.804522,0.025000,0.207289
769.838101,0.150000,0.075000
769.871680,0.050000,0.082916
769.905259,0.150000,0.230489
769.938837,0.550000,0.225000
769.972415,-0.175000,0.064952
770.005993,0.175000,0.178098
770.039570,0.150000,0.108972
770.073147,0.125000,0.054486
770.106724,0.225000,0.113880
770.140301,0.450000,0.103078
770.173878,0.125000,0.021651
770.207454,0.575000,0.374792
770.241030,0.150000,0.055902
770.274606,0.175000,0.089268
770.308181,0.425000,0.143069
770.341757,0.125000,0.113880
770.375332,0.250000,0.082916
770.408906,-0.050000,0.025000
770.442481,0.025000,0.129301
770.476055,0.025000,0.174553
770.509629,0.225000,0.041458
770.543203,0.375000,0.355976
770.576776,0.225000,0.054486
770.610350,0.175000,0.064952
770.643923,0.025000,0.081968
770.677495,0.150000,0.075000
770.711068,0.050000,0.082916
770.744640,0.150000,0.103078
770.778212,0.000000,0.050000
770.811784,-0.025000,0.021651
770.845356,0.075000,0.089268
770.878927,0.375000,0.181573
770.912498,0.075000,0.041458
770.946069,0.250000,0.188746
770.979639,-0.050000,0.075000
771.013209,0.250000,0.090139
771.046779,-0.375000,0.041458
771.080349,0.000000,0.122474
771.113919,0.275000,0.143069
771.147488,0.075000,0.041458
771.181057,0.100000,0.079057
771.214626,0.150000,0.143614
771.248194,-0.050000,0.043301
771.281762,-0.100000,0.050000
771.315330,-0.075000,0.054486
771.348898,0.275000,0.096014
771.382465,0.300000,0.271570
771.416033,0.825000,0.235518
771.449600,0.475000,0.316968
771.483166,0.950000,0.238485
771.516733,0.825000,0.170935
771.550299,0.500000,0.297909
771.583865,0.025000,0.054486
771.617431,0.150000,0.075000
771.650996,0.225000,0.081968
771.684562,0.675000,0.248433
771.718127,0.100000,0.079057
771.751691,-0.025000,0.096014
771.785256,0.150000,0.125000
771.818820,0.175000,0.129301
771.852384,0.325000,0.096014
771.885948,0.250000,0.275000
771.919511,0.025000,0.054486
771.953074,0.125000,0.054486
771.986637,0.125000,0.054486
772.020200,0.150000,0.134629
772.053762,0.100000,0.079057
772.087325,0.175000,0.272431
772.120887,-0.050000,0.114564
772.154448,0.200000,0.158114
772.188010,0.025000,0.073951
772.221571,0.100000,0.158114
772.255132,0.400000,0.070711
772.288692,0.450000,0.328824
772.322253,0.450000,0.354436
772.355813,-0.025000,0.279229
772.389373,-0.025000,0.267804
772.422933,0.100000,0.291548
772.456492,0.450000,0.188746
772.490051,0.025000,0.041458
772.523610,-0.125000,0.054486
772.557169,-0.075000,0.064952
772.590727,-0.050000,0.075000
772.624285,0.125000,0.064952
772.657843,0.075000,0.064952
772.691401,-0.175000,0.124373
772.724958,0.100000,0.079057
772.758515,0.325000,0.119242
772.792072,0.250000,0.043301
772.825629,-0.200000,0.106066
772.859185,0.875000,0.326678
772.892741,-0.175000,0.064952
772.926297,0.225000,0.089268
772.959853,0.000000,0.093541
772.993408,-0.750000,0.075000
773.026963,-0.175000,0.021651
773.060518,0.225000,0.230149
773.094073,-0.075000,0.167239
773.127627,0.325000,0.124373
773.161181,0.450000,0.082916
773.194735,0.250000,0.114564
773.228289,0.650000,0.216506
773.261842,1.350000,0.279508
773.295395,1.875000,0.442118
773.328948,0.575000,0.119242
773.362500,0.375000,0.270127
773.396053,-0.075000,0.089268
773.429605,-0.050000,0.075000
773.463157,0.150000,0.055902
773.496708,0.300000,0.079057
773.530260,-0.275000,0.021651
773.563811,-0.300000,0.035355
773.597361,-0.025000,0.073951
773.630912,0.025000,0.041458
773.664462,0.350000,0.103078
773.698012,0.150000,0.175000
773.731562,0.150000,0.055902
773.765111,0.500000,0.269258
773.798661,0.550000,0.143614
773.832210,0.150000,0.082916
773.865758,-0.150000,0.075000
773.899307,0.225000,0.167239
773.932855,0.050000,0.055902
773.966403,-0.150000,0.055902
773.999951,0.025000,0.054486
774.033498,0.050000,0.103078
774.067046,0.175000,0.129301
774.100593,0.225000,0.021651
774.134139,0.275000,0.064952
774.167686,0.100000,0.070711
774.201232,0.200000,0.061237
774.234778,0.075000,0.054486
774.268324,0.050000,0.075000
774.301869,0.650000,0.283945
774.335414,-0.125000,0.089268
774.368959,0.425000,0.253414
774.402504,0.100000,0.070711
774.436048,-0.175000,0.207289
774.469592,0.350000,0.188746
774.503136,0.175000,0.064952
774.536680,0.750000,0.192029
774.570223,0.200000,0.061237
774.603766,0.200000,0.093541
774.637309,0.200000,0.079057
774.670852,0.175000,0.143069
774.704394,0.075000,0.073951
774.737936,0.150000,0.235850
774.771478,0.225000,0.255869
774.805020,0.425000,0.129301
774.838561,0.400000,0.176777
774.872102,0.200000,0.061237
774.905643,0.200000,0.136931
774.939183,0.425000,0.159589
774.972724,0.400000,0.093541
775.006264,0.350000,0.025000
775.039804,1.700000,0.237171
775.073343,0.875000,0.332368
775.106882,0.725000,0.421863
775.140421,0.800000,0.262202
775.173960,-0.150000,0.025000
775.207499,0.250000,0.204634
775.241037,0.275000,0.213234
775.274575,-0.025000,0.073951
775.308113,0.100000,0.154110
775.341650,0.200000,0.035355
775.375187,0.150000,0.082916
775.408724,-0.100000,0.050000
775.442261,-0.175000,0.073951
775.475798,-0.050000,0.090139
775.509334,0.650000,0.453459
775.542870,-0.125000,0.064952
775.576405,-0.050000,0.055902
775.609941,0.150000,0.075000
775.643476,0.550000,0.343693
775.677011,-0.250000,0.055902
775.710546,0.200000,0.050000
775.744080,0.400000,0.183712
775.777614,0.400000,0.247487
775.811148,0.025000,0.108253
775.844682,-0.000000,0.093541
775.878215,-0.075000,0.138632
775.911748,0.325000,0.204252
775.945281,0.300000,0.093541
775.978814,-0.100000,0.093541
776.012346,0.100000,0.093541
776.045878,0.500000,0.385681
776.079410,0.225000,0.138632
776.112941,0.125000,0.081968
776.146473,0.225000,0.253414
776.180004,0.100000,0.231840
776.213535,0.225000,0.108253
776.247065,0.350000,0.188746
776.280595,0.350000,0.114564
776.314125,-0.075000,0.073951
776.347655,-0.175000,0.054486
776.381185,-0.175000,0.081968
776.414714,0.275000,0.134048
776.448243,-0.025000,0.089268
776.481772,0.050000,0.043301
776.515300,0.100000,0.035355
776.548828,-0.025000,0.054486
776.582356,0.250000,0.283945
776.615884,0.825000,0.658004
776.649411,0.550000,0.182003
776.682938,0.900000,0.106066
776.716465,0.200000,0.050000
776.749992,0.275000,0.064952
776.783518,0.350000,0.248747
776.817044,1.100000,0.252488
776.850570,1.500000,0.621490
776.884096,1.600000,0.434454
776.917621,1.025000,0.210283
776.951146,0.175000,0.073951
776.984671,-0.025000,0.421863
777.018196,0.175000,0.151554
777.051720,0.200000,0.079057
777.085244,0.025000,0.021651
777.118768,-0.225000,0.210283
777.152292,0.125000,0.054486
777.185815,0.375000,0.194856
777.219338,0.025000,0.096014
777.252861,0.375000,0.354216
777.286383,0.125000,0.073951
777.319905,0.200000,0.209165
777.353427,0.200000,0.035355
777.386949,0.075000,0.041458
777.420471,0.225000,0.073951
777.453992,0.300000,0.079057
777.487513,0.325000,0.041458
777.521033,-0.400000,0.035355
777.554554,-0.050000,0.082916
777.588074,0.325000,0.167239
777.621594,0.600000,0.127475
777.655114,0.050000,0.082916
777.688633,0.125000,0.134048
777.722152,0.450000,0.332603
777.755671,0.350000,0.225000
777.789190,0.150000,0.103078
777.822708,0.150000,0.175000
777.856226,0.500000,0.231840
777.889744,0.400000,0.093541
777.923261,0.625000,0.486538
777.956779,0.125000,0.096014
777.990296,0.550000,0.163936
778.023812,0.525000,0.216145
778.057329,0.300000,0.150000
778.090845,0.450000,0.134629
778.124361,0.100000,0.035355
778.157877,0.025000,0.073951
778.191392,-0.125000,0.073951
778.224908,0.150000,0.114564
778.258423,0.100000,0.127475
778.291937,-0.100000,0.070711
778.325452,0.275000,0.155624
778.358966,-0.075000,0.054486
778.392480,0.175000,0.134048
778.425993,0.125000,0.167239
778.459507,0.175000,0.054486
778.493020,0.475000,0.285865
778.526533,0.025000,0.163459
778.560045,-0.125000,0.143069
778.593558,0.400000,0.117260
778.627070,1.325000,0.290205
778.660582,2.975000,0.554949
778.694093,3.150000,0.575000
778.727605,1.850000,0.442295
778.761116,0.675000,0.194856
778.794626,0.325000,0.113880
778.828137,0.475000,0.285865
778.861647,0.400000,0.206155
778.895157,0.500000,0.203101
778.928667,0.150000,0.103078
778.962176,0.225000,0.073951
778.995686,0.400000,0.145774
779.029194,0.275000,0.054486
779.062703,0.075000,0.089268
779.096212,0.275000,0.124373
779.129720,0.175000,0.041458
779.163228,-0.225000,0.054486
779.196735,0.175000,0.073951
779.230243,-0.600000,0.093541
779.263750,0.100000,0.093541
779.297257,0.075000,0.134048
779.330763,0.450000,0.279508
779.364269,0.225000,0.124373
779.397776,0.225000,0.089268
779.431281,0.000000,0.035355
779.464787,0.125000,0.081968
779.498292,0.150000,0.129904
779.531797,0.300000,0.061237
779.565302,0.150000,0.055902
779.598806,0.275000,0.210283
779.632311,0.300000,0.150000
779.665814,0.350000,0.125000
779.699318,0.400000,0.106066
779.732822,0.275000,0.041458
779.766325,0.150000,0.134629
779.799828,0.175000,0.073951
779.833330,0.100000,0.061237
779.866833,-0.050000,0.103078
779.900335,0.400000,0.262202
779.933837,-0.075000,0.054486
779.967338,0.500000,0.463681
780.000840,0.675000,0.283670
780.034341,-0.175000,0.108253
780.067841,0.175000,0.089268
780.101342,0.125000,0.054486
780.134842,0.175000,0.102317
780.168342,-0.175000,0.041458
780.201842,0.200000,0.061237
780.235341,0.250000,0.055902
780.268841,0.075000,0.054486
780.302340,0.000000,0.093541
780.335838,0.150000,0.055902
780.369337,0.325000,0.089268
780.402835,0.725000,0.129301
780.436333,2.350000,0.496865
780.469830,3.375000,0.361205
780.503328,4.000000,0.351781
780.536825,5.200000,0.897914
780.570322,1.100000,0.462331
780.603818,0.650000,0.175000
780.637315,0.300000,0.335410
780.670811,-0.075000,0.041458
780.704306,0.025000,0.113880
780.737802,0.150000,0.025000
780.771297,0.025000,0.143069
780.804792,0.625000,0.260708
780.838287,0.150000,0.114564
780.871781,0.350000,0.055902
780.905276,0.200000,0.206155
780.938770,-0.150000,0.134629
780.972263,-0.025000,0.021651
781.005757,0.075000,0.041458
781.039250,0.275000,0.216145
781.072743,0.200000,0.061237
781.106235,0.125000,0.138632
781.139728,0.250000,0.055902
781.173220,0.275000,0.073951
781.206712,0.700000,0.276134
781.240203,0.300000,0.200000
781.273694,-0.075000,0.064952
781.307185,0.150000,0.075000
781.340676,0.625000,0.429207
781.374167,0.800000,0.209165
781.407657,0.525000,0.096014
781.441147,0.000000,0.070711
781.474636,0.250000,0.108972
781.508126,0.075000,0.108253
781.541615,0.175000,0.124373
781.575104,0.225000,0.041458
781.608593,0.125000,0.138632
781.642081,0.175000,0.129301
781.675569,0.200000,0.035355
781.709057,0.100000,0.093541
781.742544,0.175000,0.041458
781.776032,-0.225000,0.064952
781.809519,0.075000,0.041458
781.843006,0.250000,0.043301
781.876492,0.450000,0.305164
781.909978,0.500000,0.136931
781.943464,0.325000,0.041458
781.976950,0.725000,0.432110
782.010435,0.100000,0.000000
782.043921,0.175000,0.064952
782.077406,0.375000,0.213234
782.110890,0.450000,0.143614
782.144375,0.175000,0.143069
782.177859,0.275000,0.096014
782.211343,0.475000,0.134048
782.244826,2.175000,0.426285
782.278309,5.125000,0.746973
782.311792,3.575000,1.037048
782.345275,7.500000,1.411117
782.378758,3.675000,0.786110
782.412240,1.250000,0.596343
782.445722,0.900000,0.212132
782.479204,0.100000,0.127475
782.512685,-0.225000,0.102317
782.546166,0.125000,0.081968
782.579647,0.175000,0.041458
782.613128,-0.025000,0.041458
782.646608,-0.025000,0.089268
782.680088,0.225000,0.073951
782.713568,-0.075000,0.054486
782.747048,0.350000,0.108972
782.780527,-0.175000,0.041458
782.814006,-0.100000,0.070711
782.847485,-0.050000,0.075000
782.880963,0.200000,0.215058
782.914442,0.400000,0.206155
782.947920,0.175000,0.143069
782.981397,0.200000,0.266927
783.014875,0.350000,0.114564
783.048352,0.400000,0.406202
783.081829,0.400000,0.154110
783.115306,0.175000,0.041458
783.148782,0.275000,0.216145
783.182258,-0.250000,0.055902
783.215734,0.125000,0.096014
783.249209,0.225000,0.245904
783.282685,0.175000,0.054486
783.316160,0.275000,0.198037
783.349635,0.100000,0.035355
783.383109,-0.075000,0.081968
783.416583,-0.050000,0.103078
783.450057,0.250000,0.160078
783.483531,0.225000,0.138632
783.517004,0.325000,0.143069
783.550477,0.400000,0.209165
783.583950,0.400000,0.050000
783.617423,0.550000,0.075000
783.650895,0.225000,0.041458
783.684367,0.275000,0.270127
783.717839,-0.375000,0.089268
783.751311,0.300000,0.176777
783.784782,0.150000,0.055902
783.818253,0.175000,0.124373
783.851724,0.325000,0.041458
783.885194,0.150000,0.090139
783.918665,-0.125000,0.108253
783.952134,0.375000,0.255869
783.985604,0.600000,0.127475
784.019074,0.475000,0.163459
784.052543,1.050000,0.075000
784.086012,3.425000,0.194856
784.119480,4.825000,0.669305
784.152948,7.250000,0.508060
784.186416,6.625000,1.174934
784.219884,4.775000,0.480072
784.253352,1.525000,0.181573
784.286819,0.400000,0.344601
784.320286,0.575000,0.300780
784.353753,0.350000,0.134629
784.387219,0.250000,0.134629
784.420685,0.025000,0.021651
784.454151,0.650000,0.283945
784.487617,0.275000,0.124373
784.521082,0.125000,0.041458
784.554547,0.200000,0.079057
784.588012,0.075000,0.064952
784.621477,0.150000,0.103078
784.654941,0.425000,0.147373
784.688405,0.775000,0.096014
784.721869,0.125000,0.081968
784.755332,0.000000,0.061237
784.788795,0.050000,0.103078
784.822258,0.450000,0.167705
784.855721,0.225000,0.081968
784.889183,0.250000,0.167705
784.922646,-0.050000,0.055902
784.956107,0.700000,0.093541
784.989569,0.625000,0.243349
785.023030,-0.050000,0.075000
785.056491,0.100000,0.122474
785.089952,0.075000,0.129301
785.123413,-0.075000,0.054486
785.156873,-0.125000,0.054486
785.190333,0.450000,0.082916
785.223792,0.425000,0.143069
785.257252,0.450000,0.201556
785.290711,-0.000000,0.093541
785.324170,0.150000,0.082916
785.357629,-0.025000,0.151554
785.391087,0.200000,0.035355
785.424545,0.150000,0.103078
785.458003,-0.025000,0.021651
785.491460,0.125000,0.089268
785.524918,0.225000,0.021651
785.558375,0.100000,0.035355
785.591831,0.450000,0.480234
785.625288,0.550000,0.178536
785.658744,0.625000,0.181573
785.692200,0.050000,0.075000
785.725655,0.150000,0.025000
785.759111,0.200000,0.093541
785.792566,0.100000,0.070711
785.826021,0.550000,0.090139
785.859475,0.100000,0.145774
785.892930,0.675000,0.167239
785.926384,3.450000,0.656220
785.959837,5.400000,0.462331
785.993291,8.800000,1.229837
786.026744,8.200000,0.625500
786.060197,4.366667,0.040825
786.093649,3.375000,0.548150
786.127102,0.525000,0.102317
786.160554,0.625000,0.224653
786.194006,0.175000,0.064952
786.227457,0.475000,0.041458
786.260909,0.375000,0.119242
786.294360,0.325000,0.096014
786.327810,0.075000,0.081968
786.361261,0.075000,0.041458
786.394711,0.150000,0.055902
786.428161,-0.025000,0.041458
786.461611,0.300000,0.035355
786.495060,0.250000,0.025000
786.528509,0.175000,0.073951
786.561958,0.275000,0.073951
786.595407,0.050000,0.025000
786.628855,0.450000,0.160078
786.662303,-0.050000,0.082916
786.695751,0.100000,0.000000
786.729198,0.225000,0.064952
786.762645,0.100000,0.061237
786.796092,0.100000,0.093541
786.829539,0.450000,0.265754
786.862985,-0.100000,0.070711
786.896431,0.175000,0.073951
786.929877,0.225000,0.124373
786.963323,0.075000,0.151554
786.996768,0.325000,0.096014
787.030213,-0.000000,0.093541
787.063658,-0.125000,0.064952
787.097102,0.075000,0.021651
787.130547,-0.200000,0.106066
787.163991,-0.025000,0.041458
787.197434,-0.175000,0.064952
787.230878,0.400000,0.035355
787.264321,0.400000,0.150000
787.297764,0.150000,0.160078
787.331206,0.350000,0.082916
787.364648,0.875000,0.506674
787.398090,0.200000,0.035355
787.431532,0.825000,0.213234
787.464974,0.300000,0.346410
787.498415,0.075000,0.240767
787.531856,0.175000,0.096014
787.565296,-0.100000,0.106066
787.598737,0.300000,0.079057
787.632177,0.375000,0.041458
787.665617,0.150000,0.075000
787.699056,0.350000,0.043301
787.732496,0.750000,0.458939
787.765935,2.775000,0.300780
787.799373,5.400000,0.594769
787.832812,10.225000,1.803599
787.866250,15.550000,2.423969
787.899688,14.850000,1.020723
787.933126,5.425000,0.768420
787.966563,1.250000,0.275000
788.000000,0.550000,0.256174
788.033437,0.150000,0.075000
788.066873,0.350000,0.114564
788.100310,0.550000,0.207666
788.133746,0.900000,0.141421
788.167181,0.325000,0.089268
788.200617,0.550000,0.108972
788.234052,0.075000,0.073951
788.267487,-0.050000,0.090139
788.300921,0.175000,0.081968
788.334356,0.125000,0.054486
788.367790,0.250000,0.075000
788.401224,0.500000,0.209165
788.434657,0.250000,0.134629
788.468090,-0.025000,0.064952
788.501523,0.425000,0.081968
788.534956,0.150000,0.103078
788.568389,0.450000,0.251247
788.601821,0.150000,0.167705
788.635253,0.300000,0.093541
788.668684,0.475000,0.108253
788.702116,0.075000,0.054486
788.735547,0.225000,0.108253
788.768977,0.050000,0.025000
788.802408,0.200000,0.093541
788.835838,0.300000,0.111803
788.869268,0.400000,0.050000
788.902698,0.275000,0.216145
788.936127,0.300000,0.183712
788.969556,0.725000,0.381404
789.002985,0.625000,0.263095
789.036414,0.325000,0.138632
789.069842,0.075000,0.073951
789.103270,0.250000,0.055902
789.136698,0.500000,0.295804
789.170125,0.150000,0.134629
789.203552,0.400000,0.061237
789.236979,0.450000,0.134629
789.270406,0.275000,0.096014
789.303832,0.450000,0.043301
789.337258,0.225000,0.230149
789.370684,0.100000,0.203101
789.404110,0.275000,0.021651
789.437535,0.375000,0.081968
789.470960,0.325000,0.021651
789.504385,0.475000,0.167239
789.537809,0.575000,0.167239
789.571233,0.250000,0.090139
789.604657,1.925000,0.531948
789.638081,4.025000,0.210283
789.671504,8.475000,1.134887
789.704927,13.350000,0.915492
789.738350,19.250000,0.675925
789.771772,14.075000,1.776012
789.805195,6.575000,0.232849
789.838617,1.325000,0.167239
789.872038,0.850000,0.256174
789.905460,-0.625000,0.073951
789.938881,0.025000,0.054486
789.972302,0.025000,0.041458
790.005722,0.075000,0.064952
790.039143,0.250000,0.043301
790.072563,0.225000,0.113880
790.105982,0.150000,0.134629
790.139402,0.225000,0.073951
790.172821,-0.150000,0.055902
790.206240,0.325000,0.263095
790.239658,0.550000,0.225000
790.273077,0.275000,0.081968
790.306495,0.000000,0.000000
790.339913,0.750000,0.207666
790.373330,0.275000,0.108253
790.406747,0.225000,0.021651
790.440164,0.000000,0.035355
790.473581,0.250000,0.103078
790.506997,0.225000,0.124373
790.540414,0.300000,0.212132
790.573829,0.200000,0.079057
790.607245,0.500000,0.269258
790.640660,0.300000,0.093541
790.674075,0.900000,0.333542
790.707490,0.550000,0.391312
790.740904,0.250000,0.025000
790.774319,0.325000,0.255869
790.807733,0.025000,0.089268
790.841146,0.125000,0.119242
790.874560,-0.150000,0.160078
790.907973,0.175000,0.073951
790.941385,0.450000,0.075000
790.974798,0.025000,0.041458
791.008210,0.050000,0.125000
791.041622,0.150000,0.108972
791.075034,0.175000,0.064952
791.108445,0.725000,0.314990
791.141856,0.450000,0.134629
791.175267,0.100000,0.035355
791.208678,0.200000,0.086603
791.242088,0.400000,0.176777
791.275498,0.400000,0.203101
791.308908,0.450000,0.125000
791.342317,0.175000,0.041458
791.375726,0.250000,0.082916
791.409135,0.675000,0.270127
791.442544,0.575000,0.167239
791.475952,1.625000,0.294480
791.509360,6.900000,0.610328
791.542768,17.475000,0.449131
791.576176,31.125000,2.214265
791.609583,36.900000,1.160819
791.642990,27.275000,2.216240
791.676396,8.100000,1.853375
791.709803,1.700000,0.538516
791.743209,0.725000,0.276981
791.776615,0.425000,0.147373
791.810020,0.175000,0.096014
791.843425,0.225000,0.143069
791.876830,-0.300000,0.176777
791.910235,0.525000,0.216145
791.943640,0.100000,0.061237
791.977044,0.175000,0.155624
792.010448,0.150000,0.114564
792.043851,0.225000,0.041458
792.077254,0.025000,0.113880
792.110658,0.275000,0.041458
792.144060,0.250000,0.043301
792.177463,0.425000,0.096014
792.210865,0.025000,0.081968
792.244267,0.575000,0.151554
792.277668,0.275000,0.163459
792.311070,0.075000,0.054486
792.344471,0.550000,0.114564
792.377872,0.250000,0.125000
792.411272,0.275000,0.240767
792.444672,0.425000,0.151554
792.478072,0.625000,0.216145
792.511472,0.100000,0.050000
792.544871,0.250000,0.125000
792.578271,0.200000,0.289396
792.611669,0.200000,0.061237
792.645068,0.850000,0.356195
792.678466,-0.100000,0.100000
792.711864,0.250000,0.055902
792.745262,0.300000,0.136931
792.778659,0.200000,0.127475
792.812056,1.725000,0.755294
792.845453,0.525000,0.341641
792.878850,0.200000,0.070711
792.912246,0.550000,0.283945
792.945642,0.200000,0.070711
792.979038,0.375000,0.041458
793.012433,0.350000,0.108972
793.045829,0.050000,0.055902
793.079223,-0.050000,0.090139
793.112618,0.025000,0.064952
793.146012,0.700000,0.190394
793.179406,0.025000,0.167239
793.212800,0.200000,0.093541
793.246194,0.225000,0.073951
793.279587,0.575000,0.089268
793.312980,0.650000,0.216506
793.346373,0.775000,0.204252
793.379765,4.950000,0.596343
793.413157,19.750000,1.419727
793.446549,33.950000,2.179593
793.479940,50.750000,2.465385
793.513332,37.400000,1.333698
793.546723,17.075000,1.633009
793.580113,3.750000,0.349106
793.613504,0.925000,0.240767
793.646894,-0.050000,0.043301
793.680284,0.375000,0.281458
793.713673,0.075000,0.081968
793.747062,0.075000,0.151554
793.780451,0.250000,0.114564
793.813840,0.400000,0.061237
793.847228,0.175000,0.129301
793.880617,0.100000,0.079057
793.914004,0.275000,0.054486
793.947392,-0.175000,0.073951
793.980779,-0.050000,0.082916
794.014166,-0.100000,0.061237
794.047553,0.325000,0.163459
794.080940,0.475000,0.216145
794.114326,0.425000,0.174553
794.147712,0.350000,0.309233
794.181097,0.475000,0.124373
794.214483,0.575000,0.194856
794.247868,0.775000,0.147373
794.281252,0.450000,0.219374
794.314637,0.100000,0.122474
794.348021,0.775000,0.151554
794.381405,0.325000,0.253414
794.414788,0.600000,0.247487
794.448172,0.800000,0.237171
794.481555,0.650000,0.270416
794.514938,0.300000,0.158114
794.548320,0.350000,0.371652
794.581702,0.400000,0.122474
794.615084,0.650000,0.305164
794.648466,0.475000,0.267804
794.681847,0.625000,0.216145
794.715228,0.125000,0.411362
794.748609,0.900000,0.215058
794.781990,-0.300000,0.398434
794.815370,0.325000,0.238157
794.848750,0.450000,0.238485
794.882129,-0.225000,0.073951
794.915509,0.375000,0.124373
794.948888,0.175000,0.064952
794.982267,0.250000,0.108972
795.015645,0.225000,0.089268
795.049023,0.350000,0.114564
795.082401,-0.025000,0.124373
795.115779,0.200000,0.106066
795.149156,0.750000,0.246221
795.182534,0.550000,0.055902
795.215910,1.900000,0.770552
795.249287,5.200000,1.261448
795.282663,17.925000,1.443249
795.316039,40.200000,2.844952
795.349415,68.000000,3.452354
795.382790,86.725000,2.770464
795.416165,47.375000,4.324548
795.449540,13.675000,1.197067
795.482915,2.700000,0.544289
795.516289,1.575000,0.267804
795.549663,0.375000,0.096014
795.583037,0.150000,0.055902
795.616410,0.600000,0.061237
795.649783,-0.275000,0.073951
795.683156,0.525000,0.213234
795.716529,0.500000,0.183712
795.749901,0.300000,0.226385
795.783273,0.425000,0.041458
795.816645,0.175000,0.357727
795.850016,0.175000,0.155624
795.883387,0.300000,0.079057
795.916758,0.150000,0.125000
795.950129,0.425000,0.163459
795.983499,0.375000,0.134048
796.016869,0.350000,0.258602
796.050239,0.050000,0.147902
796.083608,0.325000,0.021651
796.116977,0.350000,0.075000
796.150346,-0.125000,0.167239
796.183714,0.450000,0.201556
796.217083,0.925000,0.352447
796.250451,0.275000,0.124373
796.283818,0.850000,0.082916
796.317186,0.275000,0.119242
796.350553,0.275000,0.163459
796.383920,0.325000,0.113880
796.417286,0.300000,0.215058
796.450653,0.350000,0.147902
796.484019,0.325000,0.119242
796.517384,0.100000,0.117260
796.550750,0.600000,0.293684
796.584115,0.475000,0.064952
796.617480,0.225000,0.089268
796.650844,0.250000,0.090139
796.684209,0.600000,0.093541
796.717573,0.050000,0.125000
796.750936,0.300000,0.122474
796.784300,0.500000,0.061237
796.817663,0.750000,0.301040
796.851026,0.275000,0.181573
796.884388,0.200000,0.183712
796.917751,0.650000,0.207666
796.951113,0.450000,0.134629
796.984474,0.575000,0.155624
797.017836,0.475000,0.143069
797.051197,0.550000,0.439460
797.084558,0.375000,0.108253
797.117918,2.100000,0.212132
797.151279,7.650000,0.576086
797.184639,22.650000,1.966119
797.217998,49.675000,3.332487
797.251358,70.233333,1.633376
797.284717,81.900000,2.895039
797.318076,38.175000,1.520434
797.351434,11.850000,1.192948
797.384793,1.975000,0.334244
797.418151,0.850000,0.192029
797.451508,0.850000,0.192029
797.484866,0.325000,0.143069
797.518223,0.250000,0.025000
797.551580,0.025000,0.081968
797.584936,0.225000,0.054486
797.618292,0.425000,0.258300
797.651648,0.200000,0.111803
797.685004,0.300000,0.035355
797.718360,0.350000,0.125000
797.751715,0.350000,0.055902
797.785069,0.600000,0.169558
797.818424,0.200000,0.000000
797.851778,0.325000,0.073951
797.885132,-0.075000,0.089268
797.918486,0.875000,0.304908
797.951839,0.600000,0.289396
797.985192,0.575000,0.210283
798.018545,0.750000,0.204634
798.051898,0.475000,0.089268
798.085250,0.475000,0.213234
798.118602,0.175000,0.073951
798.151954,0.450000,0.160078
798.185305,1.050000,0.503115
798.218656,1.175000,0.201168
798.252007,0.950000,0.275000
798.285357,1.200000,0.302076
798.318708,0.400000,0.226385
798.352057,0.475000,0.134048
798.385407,0.650000,0.043301
798.418756,0.550000,0.182003
798.452106,0.700000,0.176777
798.485454,0.150000,0.090139
798.518803,0.550000,0.055902
798.552151,0.225000,0.129301
798.585499,0.200000,0.035355
798.618847,0.050000,0.043301
798.652194,0.675000,0.238157
798.685541,0.475000,0.108253
798.718888,0.375000,0.184983
798.752234,0.600000,0.329773
798.785580,0.350000,0.025000
798.818926,0.550000,0.075000
798.852272,0.775000,0.414390
798.885617,0.150000,0.225000
798.918962,0.250000,0.043301
798.952307,0.650000,0.309233
798.985651,0.925000,0.143069
799.018996,2.125000,0.174553
799.052339,8.575000,1.203835
799.085683,27.325000,1.626490
799.119026,76.725000,5.217084
799.152369,117.650000,1.751606
799.185712,137.400000,3.652910
799.219054,64.800000,2.760208
799.252397,18.575000,0.736864
799.285738,3.525000,0.468208
799.319080,2.025000,0.207289
799.352421,1.475000,0.355976
799.385762,0.575000,0.134048
799.419103,0.650000,0.230489
799.452443,0.700000,0.183712
799.485783,0.800000,0.209165
799.519123,0.225000,0.054486
799.552463,0.400000,0.141421
799.585802,0.100000,0.070711
799.619141,0.300000,0.070711
799.652480,0.050000,0.125000
799.685818,0.025000,0.113880
799.719156,0.600000,0.158114
799.752494,0.700000,0.237171
799.785831,0.350000,0.103078
799.819169,0.550000,0.160078
799.852506,0.200000,0.136931
799.885842,0.775000,0.290205
799.919179,1.000000,0.276134
799.952515,1.175000,0.240767
799.985850,0.350000,0.114564
800.019186,0.850000,0.326917
800.052521,0.725000,0.064952
800.085856,0.950000,0.534439
800.119191,1.500000,0.318198
800.152525,0.675000,0.238157
800.185859,0.950000,0.317214
800.219193,1.275000,0.421863
800.252526,0.650000,0.114564
800.285859,0.475000,0.089268
800.319192,0.625000,0.258300
800.352525,0.550000,0.075000
800.385857,0.875000,0.221853
800.419189,1.450000,0.328824
800.452521,0.550000,0.082916
800.485852,1.175000,0.283670
800.519183,1.000000,0.203101
800.552514,0.725000,0.113880
800.585844,-0.325000,0.216145
800.619175,1.150000,0.275000
800.652505,0.700000,0.169558
800.685834,0.425000,0.081968
800.719164,0.300000,0.136931
800.752493,1.000000,0.377492
800.785821,1.050000,0.213600
800.819150,0.550000,0.301040
800.852478,0.950000,0.317214
800.885806,0.575000,0.096014
800.919134,2.750000,0.246221
800.952461,7.200000,1.038629
800.985788,36.933333,1.704895
801.019115,131.075000,2.538547
801.052441,240.975000,3.613235
801.085767,325.375000,8.361472
801.119093,212.325000,3.037346
801.152419,60.850000,1.357617
801.185744,15.750000,0.590021
801.219069,2.725000,0.403694
801.252394,0.575000,0.285865
801.285718,0.050000,0.108972
801.319042,0.325000,0.054486
801.352366,0.875000,0.562778
801.385690,0.725000,0.124373
801.419013,0.700000,0.425735
801.452336,0.500000,0.407738
801.485658,0.275000,0.411362
801.518981,1.525000,0.279229
801.552303,0.300000,0.079057
801.585625,0.500000,0.183712
801.618946,0.175000,0.108253
801.652267,0.100000,0.070711
801.685588,0.500000,0.154110
801.718909,0.325000,0.041458
801.752229,0.425000,0.096014
801.785549,0.900000,0.061237
801.818869,0.300000,0.165831
801.852188,0.025000,0.073951
801.885507,0.825000,0.221853
801.918826,0.700000,0.086603
801.952145,0.425000,0.219018
801.985463,0.475000,0.188331
802.018781,1.525000,0.450521
802.052099,0.925000,0.096014
802.085416,0.825000,0.221853
802.118733,0.650000,0.487981
802.152050,0.525000,0.138632
802.185366,0.350000,0.134629
802.218683,0.575000,0.143069
802.251999,0.425000,0.073951
802.285314,0.100000,0.150000
802.318630,0.400000,0.106066
802.351945,0.275000,0.073951
802.385259,0.600000,0.242384
802.418574,0.625000,0.204252
802.451888,0.900000,0.061237
802.485202,0.525000,0.073951
802.518515,0.975000,0.198037
802.551829,1.000000,0.196850
802.585142,0.950000,0.241091
802.618454,0.625000,0.143069
802.651767,0.375000,0.064952
802.685079,-0.100000,0.176777
802.718391,0.325000,0.108253
802.751702,1.175000,0.421863
802.785013,1.000000,0.331662
802.818324,1.750000,0.375000
802.851635,2.650000,0.410030
802.884945,14.975000,1.613372
802.918255,77.650000,3.038194
802.951565,219.633333,1.466430
802.984874,342.300000,6.108089
803.018184,394.375000,7.105225
803.051492,172.133333,4.546198
803.084801,42.900000,2.278980
803.118109,9.600000,1.556037
803.151417,1.650000,0.610840
803.184725,1.225000,0.194856
803.218032,0.725000,0.230149
803.251339,0.550000,0.188746
803.284646,0.750000,0.288314
803.317953,1.000000,0.314245
803.351259,0.125000,0.283670
803.384565,0.925000,0.138632
803.417870,1.000000,0.302076
803.451176,0.550000,0.147902
803.484481,0.325000,0.089268
803.517786,0.875000,0.443530
803.551090,0.825000,0.178098
803.584394,0.400000,0.106066
803.617698,0.525000,0.151554
803.651002,0.950000,0.160078
803.684305,0.575000,0.224653
803.717608,0.650000,0.201556
803.750910,0.575000,0.310996
803.784213,1.450000,0.275000
803.817515,1.200000,0.190394
803.850817,1.100000,0.269258
803.884118,1.425000,0.402143
803.917419,0.975000,0.283670
803.950720,1.125000,0.151554
803.984021,1.300000,0.424264
804.017321,1.700000,0.622495
804.050621,1.100000,0.302076
804.083921,1.625000,0.415895
804.117220,2.075000,0.946292
804.150519,0.700000,0.203101
804.183818,1.425000,0.400586
804.217117,0.575000,0.334244
804.250415,0.625000,0.108253
804.283713,0.950000,0.143614
804.317011,0.725000,0.124373
804.350308,1.025000,0.306951
804.383605,1.250000,0.241091
804.416902,0.875000,0.113880
804.450198,1.300000,0.176777
804.483494,1.025000,0.313000
804.516790,1.075000,0.270127
804.550086,1.200000,0.280624
804.583381,1.075000,0.238157
804.616676,1.175000,0.073951
804.649971,1.500000,0.203101
804.683265,1.275000,0.298695
804.716559,0.575000,0.096014
804.749853,1.575000,0.412879
804.783146,4.475000,0.683168
804.816440,20.000000,1.613614
804.849732,99.900000,1.770946
804.883025,326.350000,9.459288
804.916317,477.525000,8.198809
804.949609,520.000000,5.466603
804.982901,216.250000,0.053033
805.016192,41.275000,2.630678
805.049484,12.100000,0.934746
805.082774,1.575000,0.474835
805.116065,1.500000,0.379144
805.149355,0.575000,0.073951
805.182645,1.125000,0.515237
805.215935,1.150000,0.125000
805.249224,0.775000,0.113880
805.282513,0.450000,0.134629
805.315802,0.750000,0.246221
805.349090,1.375000,0.270127
805.382378,0.675000,0.167239
805.415666,0.475000,0.181573
805.448954,1.125000,0.354216
805.482241,0.550000,0.134629
805.515528,1.075000,0.585635
805.548815,0.950000,0.311247
805.582101,1.225000,0.240767
805.615387,1.150000,0.450694
805.648673,1.175000,0.272431
805.681958,1.475000,0.294480
805.715243,2.000000,0.512348
805.748528,0.775000,0.163459
805.781813,0.975000,0.124373
805.815097,1.600000,0.293684
805.848381,2.050000,0.590021
805.881665,1.125000,0.255869
805.914948,2.550000,0.326917
805.948231,2.250000,0.438035
805.981514,1.175000,0.384667
806.014796,0.900000,0.289396
806.048079,1.350000,0.182003
806.081360,1.650000,0.445112
806.114642,1.500000,0.508675
806.147923,0.925000,0.178098
806.181204,1.025000,0.230149
806.214485,0.675000,0.210283
806.247765,1.325000,0.364649
806.281046,0.825000,0.119242
806.314325,2.275000,0.927615
806.347605,1.475000,0.290205
806.380884,0.075000,0.143069
806.414163,1.125000,0.216145
806.447441,1.175000,0.210283
806.480720,1.050000,0.356195
806.513998,1.050000,0.055902
806.547275,1.575000,0.081968
806.580553,1.275000,0.213234
806.613830,1.900000,0.259808
806.647107,2.075000,0.402143
806.680383,1.875000,0.096014
806.713659,5.025000,0.405239
806.746935,17.150000,0.958188
806.780211,111.275000,3.264846
806.813486,420.125000,6.050452
806.846761,827.300000,6.236886
806.880036,988.400000,11.230038
806.913310,606.000000,20.390408
806.946584,113.750000,6.443359
806.979858,21.300000,1.163508
807.013132,4.525000,0.622871
807.046405,2.225000,0.556074
807.079678,1.325000,0.290205
807.112951,1.600000,0.293684
807.146223,0.800000,0.271570
807.179495,0.925000,0.213234
807.212767,0.150000,0.160078
807.246038,1.125000,0.306951
807.279309,0.750000,0.147902
807.312580,0.975000,0.408312
807.345850,1.075000,0.253414
807.379121,1.325000,0.527227
807.412390,1.375000,0.354216
807.445660,1.275000,0.434993
807.478929,1.600000,0.247487
807.512198,2.000000,0.428661
807.545467,1.200000,0.176777
807.578735,1.200000,0.407738
807.612004,0.025000,0.174553
807.645271,1.275000,0.362931
807.678539,0.875000,0.238157
807.711806,1.125000,0.178098
807.745073,1.050000,0.391312
807.778340,1.825000,0.339807
807.811606,2.850000,0.480234
807.844872,2.875000,0.542419
807.878138,2.000000,0.548862
807.911403,0.975000,0.387903
807.944668,2.150000,0.343693
807.977933,1.625000,0.198037
808.011197,1.725000,0.089268
808.044462,1.550000,0.182003
808.077725,2.300000,0.496236
808.110989,1.400000,0.306186
808.144252,1.525000,0.204252
808.177515,2.400000,0.779423
808.210778,1.525000,0.330483
808.244040,1.875000,0.232849
808.277302,1.575000,0.207289
808.310564,1.275000,0.163459
808.343826,1.725000,0.216145
808.377087,1.550000,0.082916
808.410348,1.900000,0.244949
808.443608,2.525000,0.181573
808.476869,2.150000,0.334477
808.510129,2.625000,0.332368
808.543388,2.925000,0.267804
808.576648,3.000000,0.443001
808.609907,3.525000,0.473517
808.643165,4.600000,0.768928
808.676424,11.075000,0.379761
808.709682,58.600000,2.466526
808.742940,371.675000,6.118351
808.776197,1070.175000,10.541666
808.809455,1397.650000,17.456106
808.842712,1247.650000,9.507793
808.875968,447.166667,11.190751
808.909225,76.750000,1.921751
808.942481,16.450000,0.829533
808.975736,4.275000,0.707438
809.008992,2.375000,0.674884
809.042247,1.725000,0.221853
809.075502,1.075000,0.213234
809.108756,1.350000,0.343693
809.142011,2.250000,0.321131
809.175265,2.150000,0.129904
809.208518,2.300000,0.162019
809.241772,2.550000,0.601560
809.275025,1.550000,0.175000
809.308277,2.225000,0.313000
809.341530,2.300000,0.262202
809.374782,2.075000,0.306951
809.408034,1.900000,0.154110
809.441285,2.425000,0.265460
809.474536,1.975000,0.230149
809.507787,3.275000,0.434993
809.541038,3.700000,0.231840
809.574288,2.450000,0.325000
809.607538,2.225000,0.064952
809.640788,2.450000,0.534439
809.674037,3.450000,0.500625
809.707286,3.450000,0.261008
809.740535,3.975000,0.564994
809.773783,5.025000,0.326678
809.807032,5.500000,0.465027
809.840279,3.575000,0.583497
809.873527,2.675000,0.155624
809.906774,3.325000,0.379761
809.940021,3.975000,1.101916
809.973268,3.875000,0.515237
810.006514,3.025000,0.417395
810.039760,3.075000,0.394295
810.073006,3.775000,0.671170
810.106251,4.225000,0.260708
810.139497,3.825000,0.436427
810.172741,4.550000,0.261008
810.205986,4.650000,0.725000
810.239230,4.875000,0.238157
810.272474,6.900000,0.707990
810.305718,5.400000,0.209165
810.338961,4.450000,0.219374
810.372204,6.025000,0.343466
810.405447,6.425000,1.326827
810.438689,7.725000,0.245904
810.471931,8.000000,0.704450
810.505173,9.075000,0.616821
810.538414,10.225000,0.373120
810.571656,11.800000,0.553399
810.604897,17.550000,0.898262
810.638137,32.000000,1.274755
810.671377,148.700000,1.969454
810.704617,802.966667,11.382955
810.737857,2334.825000,9.993209
810.771096,2560.775000,31.749692
810.804335,1974.300000,23.472191
810.837574,701.566667,18.188779
810.870813,98.000000,1.293735
810.904051,17.875000,0.582425
810.937288,2.975000,0.541266
810.970526,1.350000,0.450694
811.003763,1.475000,0.366359
811.037000,1.375000,0.339807
811.070237,1.950000,0.731864
811.103473,0.750000,0.394493
811.136709,0.825000,0.350669
811.169945,0.550000,0.134629
811.203180,0.950000,0.368273
811.236415,0.100000,0.000000
811.269650,0.575000,0.408312
811.302884,1.300000,0.415331
811.336119,1.125000,0.462838
811.369352,1.250000,0.301040
811.402586,1.875000,0.308980
811.435819,2.950000,0.722409
811.469052,4.400000,0.136931
811.502285,3.025000,1.128259
811.535517,1.425000,0.572686
811.568749,3.725000,0.874911
811.601981,2.850000,0.256174
811.635212,0.700000,0.367423
811.668443,1.725000,0.594112
811.701674,1.500000,0.196850
811.734905,1.900000,0.329773
811.768135,3.450000,0.826514
811.801365,3.150000,0.309233
811.834594,2.000000,0.127475
811.867824,1.075000,0.253414
811.901053,1.375000,0.207289
811.934281,0.775000,0.188331
811.967510,1.400000,0.627495
812.000738,1.375000,0.457404
812.033965,1.225000,0.400586
812.067193,1.375000,0.096014
812.100420,1.500000,0.578792
812.133647,1.425000,0.108253
812.166873,0.350000,0.540255
812.200099,0.700000,0.117260
812.233325,0.825000,0.108253
812.266551,1.175000,0.230149
812.299776,1.250000,0.178536
812.333001,0.700000,0.086603
812.366226,1.150000,0.552834
812.399450,1.225000,0.081968
812.432674,0.975000,0.081968
812.465898,0.400000,0.180278
812.499121,1.100000,0.127475
812.532345,1.625000,0.461485
812.565567,3.175000,0.397453
812.598790,4.875000,0.506674
812.632012,26.500000,0.587367
812.665234,196.150000,4.660271
812.698456,769.750000,11.848655
812.731677,1182.125000,19.290651
812.764898,999.750000,21.013998
812.798119,396.275000,6.677984
812.831339,45.366667,0.142887
812.864559,8.125000,1.265590
812.897779,1.275000,0.108253
812.930998,1.675000,0.495448
812.964217,0.800000,0.196850
812.997436,0.225000,0.064952
813.030655,0.675000,0.420379
813.063873,0.275000,0.073951
813.097091,0.250000,0.147902
813.130308,-0.100000,0.215058
813.163526,0.575000,0.238157
813.196743,0.775000,0.339807
813.229959,0.950000,0.114564
813.263176,0.675000,0.163459
813.296392,0.925000,0.427748
813.329607,0.300000,0.136931
813.362823,0.725000,0.542419
813.396038,1.075000,0.470870
813.429253,0.350000,0.152069
813.462467,0.400000,0.392110
813.495682,0.875000,0.108253
813.528895,0.825000,0.336108
813.562109,0.975000,0.240767
813.595322,0.300000,0.237171
813.628535,0.275000,0.081968
813.661748,0.350000,0.227761
813.694960,0.500000,0.289396
813.728172,0.450000,0.090139
813.761384,0.650000,0.361421
813.794596,0.050000,0.227761
813.827807,0.400000,0.266927
813.861017,0.150000,0.055902
813.894228,0.200000,0.127475
813.927438,0.350000,0.167705
813.960648,0.775000,0.276981
813.993858,0.350000,0.311247
814.027067,0.200000,0.117260
814.060276,0.300000,0.252488
814.093485,0.400000,0.407738
814.126693,0.100000,0.187083
814.159901,0.550000,0.251247
814.193109,-0.125000,0.304908
814.226316,0.425000,0.198037
814.259523,0.250000,0.103078
814.292730,0.550000,0.103078
814.325936,1.250000,0.388104
814.359143,0.725000,0.343466
814.392348,0.475000,0.298695
814.425554,0.400000,0.136931
814.458759,0.625000,0.253414
814.491964,0.225000,0.155624
814.525169,1.225000,0.487820
814.558373,0.575000,0.354216
814.591577,0.225000,0.320887
814.624781,0.925000,0.381404
814.657984,2.075000,0.163459
