#{
#    "background_file": "Backgrounds\\\\bg_787.999nm_16bin_197st_244en_10.0s_110g_4x_1_seq.txt",
#    "ccd_image_settings": [
#        1,
#        16,
#        1,
#        1600,
#        197,
#        244
#    ],
#    "ccd_temperature": "-88",
#    "cdRatios": {
#        "mean": 0.9318663548988969,
#        "std": 0.006061529999561201
#    },
#    "center_lambda": 788.0,
#    "comments": "",
#    "dark_region": 0.3023790477888087,
#    "date": "11/17/19 14:34:38PM",
#    "eff_field": 1.5,
#    "exposure": 10.0,
#    "fel_lambda": "15.0",
#    "fel_pol": "H",
#    "fel_pulses": 40,
#    "fel_pyro_cal": "0.017",
#    "fel_reprate": "1.07",
#    "fel_transmission": "1.0",
#    "fel_transmission_fits": {
#        "A": 1.0,
#        "C": 0.0,
#        "Mu": 0.0
#    },
#    "fieldInt": {
#        "mean": 9173.552,
#        "std": 494.3607281013125
#    },
#    "fieldStrength": {
#        "mean": 43.92311363636364,
#        "std": 1.1917877557169059
#    },
#    "fpTime": {
#        "mean": 1.1136353681229578,
#        "std": 0.06509523190085957
#    },
#    "gain": 110,
#    "grating": 3,
#    "images_in_sequence": [
#        "hsg_SpotD_crystal16_an45_HAna157.txt",
#        "hsg_SpotD_crystal16_an45_HAna158.txt",
#        "hsg_SpotD_crystal16_an45_HAna159.txt",
#        "hsg_SpotD_crystal16_an45_HAna160.txt"
#    ],
#    "nir_lambda": "820.9918",
#    "nir_pola": "-45",
#    "nir_polg": "0",
#    "nir_power": "100.0",
#    "pulseEnergies": {
#        "mean": 1.97575,
#        "std": 0.1171461680134959
#    },
#    "pyroVoltage": {
#        "mean": 0.12483100873340328,
#        "std": 0.008097574756109975
#    },
#    "rotatorAngle": 135.0,
#    "sample_Temp": "58",
#    "sample_name": "L001218.C3",
#    "series": "SpotD_16_-45",
#    "slits": "60",
#    "spec_step": "",
#    "window_trans": 0.92,
#    "y_max": 2,
#    "y_min": 1
#}
#
#
#
#
#
#
#
#
#
#
#
#
#
#
#
#
#
#
#
#
#
#
#
#
#
#
Wavelength,Signal,error
nm,arb. u.,arb.u.
Wavelength,SpotD_16_-45,error
761.200217,-0.175000,0.054486
761.233859,0.125000,0.113880
761.267500,0.400000,0.050000
761.301141,-0.125000,0.096014
761.334781,0.050000,0.090139
761.368422,-0.375000,0.064952
761.402062,0.175000,0.124373
761.435702,0.125000,0.163459
761.469342,-0.150000,0.075000
761.502981,0.625000,0.384667
761.536620,-0.050000,0.075000
761.570259,0.025000,0.054486
761.603898,0.050000,0.163936
761.637537,-0.100000,0.106066
761.671175,-0.175000,0.054486
761.704813,0.050000,0.082916
761.738451,0.475000,0.216145
761.772088,0.200000,0.127475
761.805726,-0.075000,0.138632
761.839363,-0.175000,0.081968
761.873000,-0.050000,0.279508
761.906636,0.025000,0.073951
761.940273,0.375000,0.194856
761.973909,0.275000,0.191621
762.007545,0.225000,0.108253
762.041180,-0.300000,0.061237
762.074816,-0.025000,0.054486
762.108451,0.050000,0.025000
762.142086,0.375000,0.064952
762.175720,0.275000,0.167239
762.209355,0.200000,0.209165
762.242989,0.275000,0.181573
762.276623,0.125000,0.096014
762.310257,-0.075000,0.089268
762.343890,-0.475000,0.089268
762.377524,-0.025000,0.124373
762.411157,0.175000,0.151554
762.444789,0.100000,0.093541
762.478422,-0.000000,0.093541
762.512054,0.350000,0.188746
762.545686,0.100000,0.000000
762.579318,0.150000,0.090139
762.612950,0.350000,0.090139
762.646581,-0.125000,0.081968
762.680212,0.350000,0.225000
762.713843,0.050000,0.075000
762.747474,0.550000,0.207666
762.781104,-0.125000,0.064952
762.814734,-0.350000,0.075000
762.848364,-0.175000,0.147373
762.881994,0.025000,0.089268
762.915623,0.200000,0.035355
762.949252,0.100000,0.035355
762.982881,0.200000,0.106066
763.016510,0.050000,0.082916
763.050139,0.250000,0.241091
763.083767,0.100000,0.093541
763.117395,0.200000,0.106066
763.151023,0.275000,0.021651
763.184650,0.450000,0.246221
763.218277,0.150000,0.192029
763.251904,0.050000,0.075000
763.285531,0.250000,0.195256
763.319158,0.150000,0.125000
763.352784,0.000000,0.061237
763.386410,0.100000,0.136931
763.420036,0.050000,0.129904
763.453661,0.550000,0.147902
763.487287,0.225000,0.283670
763.520912,-0.625000,0.213234
763.554537,0.025000,0.143069
763.588161,-0.125000,0.089268
763.621786,-0.200000,0.035355
763.655410,0.075000,0.096014
763.689034,-0.325000,0.064952
763.722657,-0.050000,0.114564
763.756281,0.100000,0.122474
763.789904,-0.075000,0.089268
763.823527,-0.300000,0.035355
763.857150,-0.075000,0.064952
763.890772,-0.175000,0.064952
763.924394,0.400000,0.297909
763.958016,0.150000,0.075000
763.991638,0.550000,0.188746
764.025260,0.300000,0.136931
764.058881,0.575000,0.364649
764.092502,-0.450000,0.114564
764.126123,0.225000,0.147373
764.159743,0.150000,0.082916
764.193363,0.050000,0.134629
764.226983,0.150000,0.108972
764.260603,0.250000,0.082916
764.294223,-0.175000,0.054486
764.327842,0.275000,0.178098
764.361461,0.075000,0.155624
764.395080,0.025000,0.041458
764.428699,-0.050000,0.075000
764.462317,0.025000,0.054486
764.495935,-0.125000,0.081968
764.529553,0.100000,0.176777
764.563170,0.750000,0.251247
764.596788,0.000000,0.111803
764.630405,0.000000,0.127475
764.664022,-0.150000,0.082916
764.697638,0.350000,0.134629
764.731255,0.175000,0.134048
764.764871,0.225000,0.096014
764.798487,0.075000,0.129301
764.832103,-0.025000,0.210283
764.865718,-0.050000,0.082916
764.899333,0.025000,0.073951
764.932948,-0.025000,0.041458
764.966563,0.050000,0.129904
765.000177,0.150000,0.055902
765.033792,0.250000,0.167705
765.067406,0.100000,0.145774
765.101019,-0.125000,0.124373
765.134633,-0.200000,0.165831
765.168246,0.100000,0.000000
765.201859,0.075000,0.041458
765.235472,0.075000,0.073951
765.269084,0.250000,0.055902
765.302697,-0.125000,0.073951
765.336309,0.300000,0.145774
765.369920,0.300000,0.154110
765.403532,0.175000,0.355976
765.437143,0.075000,0.240767
765.470754,0.225000,0.041458
765.504365,0.275000,0.108253
765.537976,0.075000,0.054486
765.571586,-0.050000,0.090139
765.605196,-0.125000,0.124373
765.638806,0.025000,0.054486
765.672416,0.050000,0.075000
765.706025,0.175000,0.041458
765.739634,0.075000,0.096014
765.773243,0.200000,0.093541
765.806851,0.150000,0.090139
765.840460,0.475000,0.188331
765.874068,0.200000,0.079057
765.907676,-0.050000,0.043301
765.941284,0.225000,0.113880
765.974891,0.075000,0.113880
766.008498,-0.100000,0.061237
766.042105,-0.100000,0.127475
766.075712,-0.175000,0.073951
766.109318,-0.100000,0.061237
766.142924,-0.125000,0.064952
766.176530,-0.375000,0.184983
766.210136,-0.175000,0.089268
766.243741,0.075000,0.064952
766.277347,0.025000,0.143069
766.310951,-0.175000,0.041458
766.344556,0.025000,0.113880
766.378161,0.250000,0.082916
766.411765,-0.275000,0.064952
766.445369,0.125000,0.178098
766.478973,0.025000,0.184983
766.512576,0.200000,0.136931
766.546179,0.075000,0.041458
766.579782,0.000000,0.079057
766.613385,0.125000,0.041458
766.646988,-0.125000,0.102317
766.680590,-0.025000,0.089268
766.714192,0.350000,0.227761
766.747794,0.200000,0.203101
766.781395,0.600000,0.154110
766.814996,-0.425000,0.096014
766.848597,-0.075000,0.089268
766.882198,0.000000,0.061237
766.915799,0.150000,0.167705
766.949399,0.075000,0.021651
766.982999,0.150000,0.025000
767.016599,-0.050000,0.082916
767.050198,0.075000,0.054486
767.083798,0.250000,0.167705
767.117397,0.200000,0.322102
767.150996,0.075000,0.108253
767.184594,-0.225000,0.054486
767.218193,0.100000,0.050000
767.251791,0.150000,0.182003
767.285389,-0.325000,0.073951
767.318986,0.000000,0.035355
767.352583,0.250000,0.143614
767.386181,-0.050000,0.075000
767.419777,-0.175000,0.147373
767.453374,0.100000,0.050000
767.486970,-0.400000,0.141421
767.520567,0.100000,0.070711
767.554162,0.100000,0.093541
767.587758,0.150000,0.075000
767.621353,0.225000,0.151554
767.654949,-0.125000,0.054486
767.688543,0.225000,0.138632
767.722138,0.050000,0.055902
767.755732,0.200000,0.070711
767.789327,-0.200000,0.093541
767.822921,-0.125000,0.248433
767.856514,0.000000,0.000000
767.890108,0.175000,0.096014
767.923701,0.100000,0.145774
767.957294,0.400000,0.176777
767.990886,0.175000,0.064952
768.024479,-0.050000,0.129904
768.058071,0.050000,0.055902
768.091663,-0.275000,0.041458
768.125255,-0.175000,0.054486
768.158846,0.000000,0.150000
768.192437,-0.325000,0.021651
768.226028,0.075000,0.113880
768.259619,0.075000,0.151554
768.293209,-0.125000,0.081968
768.326799,0.125000,0.064952
768.360389,0.275000,0.326678
768.393979,-0.100000,0.061237
768.427568,-0.050000,0.025000
768.461158,-0.075000,0.102317
768.494747,0.000000,0.050000
768.528335,0.125000,0.089268
768.561924,0.325000,0.073951
768.595512,-0.025000,0.054486
768.629100,0.150000,0.134629
768.662688,-0.075000,0.054486
768.696275,-0.075000,0.089268
768.729862,0.375000,0.143069
768.763449,0.075000,0.073951
768.797036,-0.100000,0.106066
768.830623,0.275000,0.096014
768.864209,0.025000,0.108253
768.897795,0.150000,0.025000
768.931381,0.175000,0.129301
768.964966,-0.250000,0.043301
768.998551,0.575000,0.300780
769.032136,0.100000,0.150000
769.065721,-0.050000,0.055902
769.099305,-0.100000,0.093541
769.132890,-0.125000,0.041458
769.166474,0.175000,0.064952
769.200057,0.200000,0.250000
769.233641,0.075000,0.184983
769.267224,0.025000,0.054486
769.300807,-0.075000,0.143069
769.334390,0.375000,0.300780
769.367972,0.700000,0.226385
769.401555,-0.125000,0.054486
769.435137,-0.275000,0.073951
769.468718,0.075000,0.041458
769.502300,-0.075000,0.119242
769.535881,0.150000,0.195256
769.569462,0.050000,0.364863
769.603043,0.100000,0.176777
769.636623,0.125000,0.021651
769.670204,-0.025000,0.081968
769.703784,0.325000,0.283670
769.737364,0.200000,0.145774
769.770943,0.050000,0.114564
769.804522,-0.125000,0.184983
769.838101,-0.175000,0.064952
769.871680,-0.050000,0.108972
769.905259,-0.100000,0.231840
769.938837,0.050000,0.114564
769.972415,0.075000,0.129301
770.005993,-0.050000,0.055902
770.039570,0.250000,0.075000
770.073147,0.200000,0.093541
770.106724,0.000000,0.145774
770.140301,0.350000,0.082916
770.173878,0.100000,0.035355
770.207454,0.100000,0.061237
770.241030,0.075000,0.041458
770.274606,0.000000,0.035355
770.308181,0.175000,0.108253
770.341757,0.050000,0.055902
770.375332,-0.075000,0.064952
770.408906,0.425000,0.191621
770.442481,-0.225000,0.054486
770.476055,-0.200000,0.061237
770.509629,0.300000,0.127475
770.543203,0.050000,0.075000
770.576776,0.225000,0.119242
770.610350,0.300000,0.050000
770.643923,0.350000,0.361421
770.677495,0.075000,0.021651
770.711068,0.250000,0.114564
770.744640,-0.025000,0.102317
770.778212,-0.275000,0.073951
770.811784,-0.075000,0.113880
770.845356,0.200000,0.117260
770.878927,0.800000,0.351781
770.912498,0.025000,0.054486
770.946069,0.050000,0.125000
770.979639,0.375000,0.298695
771.013209,0.125000,0.021651
771.046779,-0.525000,0.041458
771.080349,0.175000,0.096014
771.113919,0.125000,0.064952
771.147488,-0.000000,0.106066
771.181057,0.100000,0.035355
771.214626,-0.075000,0.041458
771.248194,-0.125000,0.073951
771.281762,-0.100000,0.070711
771.315330,0.150000,0.114564
771.348898,0.625000,0.283670
771.382465,0.050000,0.219374
771.416033,0.200000,0.176777
771.449600,0.600000,0.183712
771.483166,0.875000,0.421863
771.516733,0.075000,0.073951
771.550299,-0.075000,0.054486
771.583865,0.225000,0.102317
771.617431,0.125000,0.227418
771.650996,0.575000,0.213234
771.684562,0.200000,0.106066
771.718127,0.150000,0.125000
771.751691,0.025000,0.054486
771.785256,0.100000,0.127475
771.818820,0.000000,0.061237
771.852384,0.025000,0.096014
771.885948,-0.025000,0.096014
771.919511,-0.250000,0.055902
771.953074,0.200000,0.061237
771.986637,0.275000,0.089268
772.020200,0.050000,0.114564
772.053762,0.225000,0.096014
772.087325,0.525000,0.240767
772.120887,-0.100000,0.106066
772.154448,0.275000,0.041458
772.188010,0.025000,0.096014
772.221571,-0.175000,0.089268
772.255132,0.275000,0.155624
772.288692,0.075000,0.240767
772.322253,0.200000,0.276134
772.355813,0.575000,0.379761
772.389373,0.025000,0.253414
772.422933,0.000000,0.226385
772.456492,0.325000,0.170935
772.490051,0.225000,0.124373
772.523610,0.000000,0.035355
772.557169,-0.000000,0.093541
772.590727,0.075000,0.181573
772.624285,0.025000,0.064952
772.657843,0.050000,0.125000
772.691401,-0.250000,0.075000
772.724958,0.250000,0.275000
772.758515,0.075000,0.064952
772.792072,0.075000,0.096014
772.825629,-0.100000,0.035355
772.859185,0.175000,0.163459
772.892741,-0.200000,0.079057
772.926297,0.000000,0.079057
772.959853,0.025000,0.163459
772.993408,-0.650000,0.075000
773.026963,-0.100000,0.070711
773.060518,-0.075000,0.113880
773.094073,-0.175000,0.041458
773.127627,0.050000,0.055902
773.161181,0.600000,0.348210
773.194735,0.275000,0.129301
773.228289,0.050000,0.129904
773.261842,1.325000,0.124373
773.295395,0.850000,0.469707
773.328948,0.275000,0.064952
773.362500,0.275000,0.113880
773.396053,0.000000,0.079057
773.429605,0.025000,0.021651
773.463157,0.350000,0.160078
773.496708,0.125000,0.041458
773.530260,0.225000,0.265460
773.563811,-0.400000,0.079057
773.597361,-0.175000,0.041458
773.630912,0.250000,0.090139
773.664462,0.225000,0.021651
773.698012,-0.200000,0.079057
773.731562,0.250000,0.160078
773.765111,-0.025000,0.096014
773.798661,0.050000,0.055902
773.832210,0.225000,0.143069
773.865758,0.300000,0.220794
773.899307,0.050000,0.075000
773.932855,0.025000,0.041458
773.966403,-0.075000,0.041458
773.999951,-0.100000,0.070711
774.033498,-0.025000,0.054486
774.067046,0.275000,0.081968
774.100593,0.525000,0.248433
774.134139,0.250000,0.075000
774.167686,0.275000,0.267804
774.201232,0.375000,0.354216
774.234778,0.125000,0.041458
774.268324,0.300000,0.117260
774.301869,0.050000,0.043301
774.335414,-0.250000,0.075000
774.368959,0.125000,0.113880
774.402504,-0.050000,0.103078
774.436048,-0.300000,0.035355
774.469592,0.075000,0.041458
774.503136,0.200000,0.079057
774.536680,0.400000,0.318198
774.570223,0.125000,0.041458
774.603766,0.075000,0.041458
774.637309,0.175000,0.021651
774.670852,0.175000,0.054486
774.704394,0.300000,0.093541
774.737936,-0.025000,0.073951
774.771478,0.375000,0.276981
774.805020,0.050000,0.082916
774.838561,0.050000,0.055902
774.872102,0.425000,0.041458
774.905643,0.075000,0.073951
774.939183,0.550000,0.400780
774.972724,0.175000,0.255869
775.006264,0.500000,0.350000
775.039804,0.350000,0.114564
775.073343,0.225000,0.456036
775.106882,0.400000,0.061237
775.140421,0.125000,0.096014
775.173960,-0.050000,0.201556
775.207499,-0.125000,0.089268
775.241037,0.200000,0.079057
775.274575,-0.025000,0.064952
775.308113,0.125000,0.021651
775.341650,0.100000,0.070711
775.375187,0.025000,0.064952
775.408724,-0.200000,0.061237
775.442261,-0.125000,0.089268
775.475798,-0.100000,0.050000
775.509334,0.100000,0.035355
775.542870,-0.150000,0.043301
775.576405,-0.025000,0.073951
775.609941,0.075000,0.041458
775.643476,0.100000,0.093541
775.677011,-0.400000,0.111803
775.710546,0.075000,0.041458
775.744080,0.100000,0.079057
775.777614,0.075000,0.064952
775.811148,-0.025000,0.089268
775.844682,-0.275000,0.073951
775.878215,-0.050000,0.163936
775.911748,0.125000,0.138632
775.945281,0.025000,0.064952
775.978814,-0.150000,0.309233
776.012346,0.175000,0.163459
776.045878,-0.075000,0.041458
776.079410,0.300000,0.093541
776.112941,0.350000,0.167705
776.146473,-0.025000,0.064952
776.180004,0.000000,0.237171
776.213535,0.100000,0.079057
776.247065,0.125000,0.113880
776.280595,0.225000,0.138632
776.314125,0.275000,0.227418
776.347655,-0.075000,0.073951
776.381185,-0.350000,0.075000
776.414714,0.300000,0.136931
776.448243,0.100000,0.035355
776.481772,-0.050000,0.103078
776.515300,0.275000,0.124373
776.548828,0.475000,0.281458
776.582356,-0.050000,0.090139
776.615884,-0.125000,0.073951
776.649411,0.050000,0.055902
776.682938,0.125000,0.064952
776.716465,0.625000,0.400586
776.749992,-0.150000,0.082916
776.783518,0.450000,0.279508
776.817044,1.200000,0.463681
776.850570,0.850000,0.192029
776.884096,1.100000,0.502494
776.917621,0.725000,0.460129
776.951146,0.475000,0.113880
776.984671,-0.275000,0.124373
777.018196,-0.050000,0.103078
777.051720,0.150000,0.043301
777.085244,0.225000,0.143069
777.118768,-0.350000,0.075000
777.152292,0.025000,0.054486
777.185815,0.175000,0.143069
777.219338,-0.050000,0.103078
777.252861,0.225000,0.108253
777.286383,-0.100000,0.093541
777.319905,0.250000,0.195256
777.353427,0.525000,0.108253
777.386949,0.250000,0.108972
777.420471,0.050000,0.055902
777.453992,0.175000,0.041458
777.487513,0.325000,0.155624
777.521033,-0.225000,0.184983
777.554554,0.000000,0.035355
777.588074,0.075000,0.064952
777.621594,0.275000,0.129301
777.655114,0.175000,0.181573
777.688633,0.325000,0.073951
777.722152,0.100000,0.070711
777.755671,-0.075000,0.108253
777.789190,0.100000,0.086603
777.822708,-0.125000,0.041458
777.856226,0.225000,0.258300
777.889744,0.150000,0.082916
777.923261,0.000000,0.050000
777.956779,0.525000,0.163459
777.990296,0.275000,0.304908
778.023812,-0.050000,0.025000
778.057329,0.075000,0.163459
778.090845,0.350000,0.055902
778.124361,0.525000,0.219018
778.157877,-0.075000,0.073951
778.191392,-0.050000,0.114564
778.224908,0.200000,0.127475
778.258423,0.000000,0.061237
778.291937,-0.200000,0.035355
778.325452,0.050000,0.025000
778.358966,0.000000,0.079057
778.392480,0.325000,0.400586
778.425993,-0.000000,0.187083
778.459507,0.350000,0.108972
778.493020,0.175000,0.143069
778.526533,0.075000,0.143069
778.560045,-0.175000,0.143069
778.593558,0.300000,0.162019
778.627070,0.925000,0.324760
778.660582,1.775000,0.290205
778.694093,2.925000,0.462838
778.727605,0.950000,0.090139
778.761116,0.375000,0.194856
778.794626,0.150000,0.143614
778.828137,0.000000,0.061237
778.861647,0.150000,0.025000
778.895157,0.275000,0.064952
778.928667,0.050000,0.055902
778.962176,0.000000,0.035355
778.995686,0.375000,0.276981
779.029194,0.025000,0.089268
779.062703,0.025000,0.041458
779.096212,0.475000,0.355976
779.129720,0.150000,0.043301
779.163228,0.000000,0.106066
779.196735,0.475000,0.298695
779.230243,-0.500000,0.061237
779.263750,0.050000,0.090139
779.297257,0.400000,0.136931
779.330763,0.050000,0.201556
779.364269,0.125000,0.041458
779.397776,0.125000,0.054486
779.431281,0.175000,0.113880
779.464787,0.100000,0.050000
779.498292,0.100000,0.079057
779.531797,0.100000,0.117260
779.565302,0.100000,0.070711
779.598806,0.050000,0.090139
779.632311,0.100000,0.079057
779.665814,0.300000,0.050000
779.699318,0.325000,0.227418
779.732822,0.150000,0.075000
779.766325,0.325000,0.224653
779.799828,-0.050000,0.090139
779.833330,0.375000,0.314990
779.866833,-0.300000,0.079057
779.900335,0.375000,0.108253
779.933837,0.225000,0.224653
779.967338,-0.025000,0.089268
780.000840,0.025000,0.054486
780.034341,-0.300000,0.093541
780.067841,0.025000,0.108253
780.101342,-0.050000,0.082916
780.134842,0.175000,0.096014
780.168342,-0.200000,0.100000
780.201842,0.300000,0.079057
780.235341,0.575000,0.300780
780.268841,0.200000,0.127475
780.302340,0.200000,0.169558
780.335838,0.150000,0.108972
780.369337,0.125000,0.089268
780.402835,0.625000,0.245904
780.436333,1.850000,0.557337
780.469830,2.125000,0.219018
780.503328,2.125000,0.364649
780.536825,2.375000,0.728333
780.570322,0.625000,0.328586
780.603818,0.700000,0.247487
780.637315,0.350000,0.207666
780.670811,-0.100000,0.070711
780.704306,-0.175000,0.041458
780.737802,0.350000,0.143614
780.771297,0.200000,0.289396
780.804792,-0.075000,0.147373
780.838287,0.100000,0.070711
780.871781,0.000000,0.061237
780.905276,-0.075000,0.108253
780.938770,0.000000,0.127475
780.972263,-0.150000,0.043301
781.005757,0.125000,0.073951
781.039250,-0.100000,0.035355
781.072743,0.400000,0.237171
781.106235,0.075000,0.178098
781.139728,-0.075000,0.089268
781.173220,0.050000,0.082916
781.206712,0.125000,0.021651
781.240203,0.125000,0.096014
781.273694,-0.000000,0.093541
781.307185,0.025000,0.096014
781.340676,-0.075000,0.054486
781.374167,0.025000,0.064952
781.407657,0.300000,0.111803
781.441147,0.025000,0.113880
781.474636,0.075000,0.073951
781.508126,-0.075000,0.041458
781.541615,0.125000,0.054486
781.575104,0.550000,0.510514
781.608593,-0.025000,0.073951
781.642081,-0.125000,0.064952
781.675569,-0.050000,0.075000
781.709057,0.025000,0.113880
781.742544,0.450000,0.152069
781.776032,-0.200000,0.061237
781.809519,-0.125000,0.041458
781.843006,0.100000,0.093541
781.876492,0.300000,0.234521
781.909978,0.225000,0.081968
781.943464,0.250000,0.075000
781.976950,0.000000,0.035355
782.010435,0.050000,0.025000
782.043921,0.050000,0.043301
782.077406,0.025000,0.064952
782.110890,0.200000,0.035355
782.144375,0.225000,0.235518
782.177859,0.475000,0.096014
782.211343,0.300000,0.200000
782.244826,0.800000,0.231840
782.278309,1.800000,0.379144
782.311792,3.175000,0.298695
782.345275,4.000000,0.276134
782.378758,2.375000,0.652280
782.412240,1.075000,0.542419
782.445722,0.275000,0.163459
782.479204,0.100000,0.035355
782.512685,-0.075000,0.113880
782.546166,0.275000,0.181573
782.579647,0.125000,0.108253
782.613128,0.075000,0.073951
782.646608,0.225000,0.138632
782.680088,0.775000,0.314990
782.713568,0.300000,0.209165
782.747048,0.200000,0.145774
782.780527,-0.025000,0.245904
782.814006,0.000000,0.050000
782.847485,-0.025000,0.096014
782.880963,-0.250000,0.055902
782.914442,-0.025000,0.021651
782.947920,-0.025000,0.041458
782.981397,0.125000,0.138632
783.014875,0.300000,0.093541
783.048352,-0.075000,0.041458
783.081829,0.075000,0.041458
783.115306,0.225000,0.170935
783.148782,0.125000,0.081968
783.182258,-0.100000,0.162019
783.215734,0.075000,0.073951
783.249209,-0.125000,0.151554
783.282685,0.075000,0.081968
783.316160,0.000000,0.035355
783.349635,0.225000,0.064952
783.383109,0.175000,0.210283
783.416583,-0.200000,0.079057
783.450057,0.225000,0.230149
783.483531,0.025000,0.096014
783.517004,0.125000,0.081968
783.550477,0.175000,0.245904
783.583950,0.200000,0.035355
783.617423,0.275000,0.041458
783.650895,0.425000,0.174553
783.684367,0.150000,0.090139
783.717839,-0.275000,0.167239
783.751311,-0.150000,0.055902
783.784782,0.175000,0.096014
783.818253,-0.125000,0.073951
783.851724,0.250000,0.152069
783.885194,0.125000,0.064952
783.918665,-0.100000,0.061237
783.952134,0.225000,0.064952
783.985604,0.075000,0.064952
784.019074,0.175000,0.129301
784.052543,0.850000,0.357946
784.086012,1.325000,0.420379
784.119480,3.375000,0.748645
784.152948,4.475000,0.383039
784.186416,4.525000,0.535461
784.219884,2.433333,0.339730
784.253352,2.050000,0.702229
784.286819,0.550000,0.230489
784.320286,0.450000,0.305164
784.353753,0.125000,0.064952
784.387219,0.250000,0.175000
784.420685,0.225000,0.174553
784.454151,0.475000,0.316968
784.487617,0.000000,0.165831
784.521082,0.075000,0.041458
784.554547,0.325000,0.073951
784.588012,-0.075000,0.081968
784.621477,0.075000,0.096014
784.654941,-0.125000,0.064952
784.688405,0.225000,0.073951
784.721869,0.100000,0.035355
784.755332,-0.050000,0.025000
784.788795,0.350000,0.114564
784.822258,0.300000,0.117260
784.855721,0.250000,0.160078
784.889183,0.200000,0.229129
784.922646,-0.000000,0.093541
784.956107,0.250000,0.055902
784.989569,-0.150000,0.055902
785.023030,-0.200000,0.035355
785.056491,0.075000,0.096014
785.089952,0.200000,0.266927
785.123413,0.000000,0.070711
785.156873,-0.150000,0.025000
785.190333,0.000000,0.050000
785.223792,0.275000,0.143069
785.257252,0.200000,0.070711
785.290711,-0.050000,0.075000
785.324170,0.000000,0.079057
785.357629,0.025000,0.096014
785.391087,0.175000,0.096014
785.424545,-0.025000,0.041458
785.458003,0.025000,0.041458
785.491460,0.000000,0.061237
785.524918,0.100000,0.050000
785.558375,0.150000,0.055902
785.591831,0.400000,0.262202
785.625288,0.250000,0.167705
785.658744,0.250000,0.025000
785.692200,-0.000000,0.093541
785.725655,0.200000,0.176777
785.759111,0.000000,0.061237
785.792566,-0.025000,0.124373
785.826021,0.075000,0.021651
785.859475,0.100000,0.093541
785.892930,0.875000,0.285865
785.926384,1.400000,0.418330
785.959837,4.775000,0.770045
785.993291,6.866667,0.265361
786.026744,8.100000,0.815475
786.060197,3.866667,0.406714
786.093649,1.225000,0.184983
786.127102,0.400000,0.220794
786.160554,-0.050000,0.055902
786.194006,0.050000,0.055902
786.227457,0.425000,0.163459
786.260909,0.450000,0.195256
786.294360,0.125000,0.134048
786.327810,-0.275000,0.041458
786.361261,0.350000,0.134629
786.394711,0.050000,0.082916
786.428161,0.025000,0.073951
786.461611,0.650000,0.296859
786.495060,0.150000,0.082916
786.528509,-0.050000,0.025000
786.561958,-0.025000,0.073951
786.595407,0.075000,0.054486
786.628855,0.225000,0.108253
786.662303,0.400000,0.165831
786.695751,0.025000,0.041458
786.729198,0.325000,0.108253
786.762645,0.250000,0.201556
786.796092,0.025000,0.064952
786.829539,0.425000,0.245904
786.862985,-0.100000,0.176777
786.896431,-0.075000,0.041458
786.929877,0.425000,0.198037
786.963323,0.350000,0.114564
786.996768,0.125000,0.041458
787.030213,0.525000,0.274716
787.063658,-0.375000,0.096014
787.097102,0.150000,0.134629
787.130547,-0.400000,0.070711
787.163991,0.050000,0.055902
787.197434,-0.250000,0.075000
787.230878,0.325000,0.041458
787.264321,0.350000,0.108972
787.297764,-0.050000,0.055902
787.331206,0.700000,0.262202
787.364648,0.250000,0.134629
787.398090,0.425000,0.204252
787.431532,0.525000,0.054486
787.464974,0.075000,0.089268
787.498415,-0.075000,0.267804
787.531856,0.075000,0.108253
787.565296,-0.175000,0.064952
787.598737,0.250000,0.160078
787.632177,0.250000,0.025000
787.665617,-0.075000,0.021651
787.699056,0.175000,0.096014
787.732496,0.250000,0.279508
787.765935,1.950000,0.477624
787.799373,4.750000,0.201556
787.832812,7.200000,0.810093
787.866250,10.225000,1.520845
787.899688,9.725000,1.388063
787.933126,3.300000,0.699107
787.966563,1.725000,0.501716
788.000000,0.675000,0.138632
788.033437,0.100000,0.145774
788.066873,0.275000,0.213234
788.100310,0.025000,0.064952
788.133746,0.150000,0.025000
788.167181,0.200000,0.086603
788.200617,0.125000,0.089268
788.234052,0.550000,0.188746
788.267487,-0.175000,0.073951
788.300921,0.050000,0.025000
788.334356,0.225000,0.054486
788.367790,0.150000,0.025000
788.401224,0.275000,0.151554
788.434657,0.100000,0.209165
788.468090,0.175000,0.391112
788.501523,0.050000,0.055902
788.534956,0.075000,0.194856
788.568389,0.050000,0.090139
788.601821,0.000000,0.061237
788.635253,0.375000,0.054486
788.668684,0.525000,0.198037
788.702116,-0.025000,0.089268
788.735547,0.225000,0.108253
788.768977,0.050000,0.114564
788.802408,0.350000,0.025000
788.835838,0.425000,0.240767
788.869268,0.375000,0.143069
788.902698,0.175000,0.119242
788.936127,0.100000,0.061237
788.969556,0.050000,0.160078
789.002985,-0.025000,0.064952
789.036414,0.225000,0.096014
789.069842,0.025000,0.096014
789.103270,0.275000,0.064952
789.136698,-0.125000,0.041458
789.170125,0.000000,0.035355
789.203552,0.125000,0.096014
789.236979,0.575000,0.184983
789.270406,0.350000,0.447912
789.303832,0.225000,0.054486
789.337258,0.475000,0.354216
789.370684,-0.050000,0.082916
789.404110,0.200000,0.127475
789.437535,0.525000,0.081968
789.470960,0.450000,0.192029
789.504385,0.125000,0.064952
789.537809,0.450000,0.152069
789.571233,0.225000,0.143069
789.604657,0.450000,0.251247
789.638081,3.100000,0.413824
789.671504,8.025000,1.612984
789.704927,17.325000,1.145848
789.738350,14.700000,1.285982
789.771772,11.150000,1.738714
789.805195,3.300000,0.610328
789.838617,1.050000,0.192029
789.872038,0.325000,0.124373
789.905460,-0.375000,0.486538
789.938881,0.050000,0.055902
789.972302,0.050000,0.090139
790.005722,0.025000,0.081968
790.039143,-0.025000,0.089268
790.072563,0.275000,0.138632
790.105982,0.025000,0.096014
790.139402,0.100000,0.079057
790.172821,-0.200000,0.079057
790.206240,0.625000,0.347086
790.239658,0.250000,0.143614
790.273077,0.250000,0.075000
790.306495,0.000000,0.117260
790.339913,0.200000,0.086603
790.373330,0.150000,0.134629
790.406747,0.025000,0.188331
790.440164,0.050000,0.125000
790.473581,-0.075000,0.054486
790.506997,-0.075000,0.064952
790.540414,0.200000,0.145774
790.573829,0.400000,0.231840
790.607245,-0.025000,0.054486
790.640660,0.000000,0.061237
790.674075,0.050000,0.025000
790.707490,0.200000,0.093541
790.740904,0.500000,0.262202
790.774319,0.475000,0.188331
790.807733,0.750000,0.296859
790.841146,0.250000,0.207666
790.874560,-0.200000,0.035355
790.907973,0.075000,0.081968
790.941385,0.325000,0.073951
790.974798,0.200000,0.231840
791.008210,0.850000,0.622997
791.041622,-0.075000,0.089268
791.075034,0.275000,0.021651
791.108445,-0.025000,0.073951
791.141856,0.175000,0.143069
791.175267,-0.050000,0.082916
791.208678,0.225000,0.096014
791.242088,0.075000,0.089268
791.275498,0.225000,0.124373
791.308908,0.525000,0.129301
791.342317,0.200000,0.050000
791.375726,0.300000,0.127475
791.409135,0.450000,0.317214
791.442544,0.200000,0.145774
791.475952,2.550000,0.510514
791.509360,5.375000,0.523659
791.542768,17.075000,0.564994
791.576176,30.133333,0.794775
791.609583,28.725000,0.357727
791.642990,14.950000,0.991527
791.676396,5.075000,0.988291
791.709803,0.975000,0.248433
791.743209,0.875000,0.414390
791.776615,0.275000,0.235518
791.810020,0.475000,0.412879
791.843425,0.350000,0.134629
791.876830,-0.525000,0.073951
791.910235,0.250000,0.055902
791.943640,-0.000000,0.093541
791.977044,-0.150000,0.082916
792.010448,0.225000,0.263095
792.043851,-0.100000,0.061237
792.077254,0.025000,0.073951
792.110658,0.125000,0.096014
792.144060,0.275000,0.194856
792.177463,0.100000,0.035355
792.210865,0.325000,0.191621
792.244267,0.200000,0.127475
792.277668,0.375000,0.354216
792.311070,-0.050000,0.103078
792.344471,0.375000,0.073951
792.377872,0.250000,0.075000
792.411272,0.025000,0.108253
792.444672,0.175000,0.054486
792.478072,0.225000,0.227418
792.511472,0.725000,0.368061
792.544871,0.550000,0.371652
792.578271,0.025000,0.041458
792.611669,0.175000,0.064952
792.645068,0.200000,0.061237
792.678466,-0.275000,0.073951
792.711864,0.000000,0.035355
792.745262,0.000000,0.111803
792.778659,0.050000,0.125000
792.812056,-0.000000,0.176777
792.845453,0.125000,0.021651
792.878850,0.075000,0.064952
792.912246,0.025000,0.073951
792.945642,0.125000,0.255869
792.979038,0.200000,0.061237
793.012433,0.325000,0.155624
793.045829,0.750000,0.678694
793.079223,-0.125000,0.124373
793.112618,-0.225000,0.041458
793.146012,0.500000,0.136931
793.179406,0.350000,0.321131
793.212800,0.200000,0.111803
793.246194,0.375000,0.188331
793.279587,0.375000,0.073951
793.312980,0.650000,0.152069
793.346373,1.350000,0.227761
793.379765,4.266667,0.524802
793.413157,18.866667,0.725718
793.446549,35.400000,2.114533
793.479940,35.433333,0.300694
793.513332,21.325000,1.703076
793.546723,8.925000,0.785314
793.580113,1.925000,0.700335
793.613504,0.725000,0.170935
793.646894,0.050000,0.167705
793.680284,0.125000,0.113880
793.713673,0.125000,0.138632
793.747062,0.375000,0.181573
793.780451,0.000000,0.035355
793.813840,0.350000,0.143614
793.847228,0.000000,0.035355
793.880617,-0.050000,0.043301
793.914004,0.075000,0.119242
793.947392,-0.175000,0.081968
793.980779,0.025000,0.113880
794.014166,-0.025000,0.073951
794.047553,0.075000,0.073951
794.080940,0.275000,0.081968
794.114326,0.125000,0.054486
794.147712,0.250000,0.114564
794.181097,0.550000,0.114564
794.214483,0.225000,0.081968
794.247868,0.400000,0.127475
794.281252,0.425000,0.096014
794.314637,-0.425000,0.021651
794.348021,0.100000,0.106066
794.381405,0.150000,0.216506
794.414788,0.250000,0.195256
794.448172,0.350000,0.167705
794.481555,0.350000,0.043301
794.514938,0.375000,0.102317
794.548320,-0.075000,0.041458
794.581702,0.375000,0.238157
794.615084,0.775000,0.324760
794.648466,0.150000,0.082916
794.681847,0.975000,0.397453
794.715228,-0.500000,0.035355
794.748609,-0.325000,0.054486
794.781990,-0.825000,0.134048
794.815370,0.850000,0.458939
794.848750,-0.175000,0.138632
794.882129,0.175000,0.296595
794.915509,0.125000,0.041458
794.948888,0.075000,0.198037
794.982267,0.225000,0.096014
795.015645,-0.025000,0.124373
795.049023,0.425000,0.181573
795.082401,-0.075000,0.096014
795.115779,0.025000,0.096014
795.149156,0.300000,0.154110
795.182534,0.500000,0.061237
795.215910,0.675000,0.155624
795.249287,3.975000,0.292350
795.282663,18.250000,1.567043
795.316039,44.250000,1.715554
795.349415,61.325000,0.974920
795.382790,53.525000,1.711131
795.416165,18.000000,1.400446
795.449540,3.325000,0.201168
795.482915,1.000000,0.154110
795.516289,0.850000,0.235850
795.549663,-0.100000,0.050000
795.583037,0.475000,0.272431
795.616410,0.250000,0.103078
795.649783,-0.200000,0.061237
795.683156,0.300000,0.165831
795.716529,0.200000,0.093541
795.749901,-0.125000,0.064952
795.783273,0.250000,0.125000
795.816645,-0.325000,0.073951
795.850016,0.125000,0.129301
795.883387,0.225000,0.198037
795.916758,0.075000,0.073951
795.950129,0.100000,0.127475
795.983499,-0.025000,0.163459
796.016869,-0.125000,0.073951
796.050239,-0.225000,0.089268
796.083608,0.225000,0.124373
796.116977,0.675000,0.213234
796.150346,0.125000,0.096014
796.183714,0.025000,0.089268
796.217083,0.300000,0.086603
796.250451,0.250000,0.246221
796.283818,0.450000,0.279508
796.317186,-0.025000,0.129301
796.350553,0.425000,0.227418
796.383920,-0.025000,0.240767
796.417286,0.400000,0.050000
796.450653,-0.075000,0.041458
796.484019,0.175000,0.073951
796.517384,0.400000,0.093541
796.550750,0.500000,0.154110
796.584115,0.225000,0.054486
796.617480,0.100000,0.061237
796.650844,0.075000,0.064952
796.684209,0.300000,0.145774
796.717573,-0.225000,0.089268
796.750936,0.275000,0.124373
796.784300,0.350000,0.025000
796.817663,0.225000,0.163459
796.851026,0.000000,0.154110
796.884388,-0.100000,0.145774
796.917751,0.275000,0.119242
796.951113,0.075000,0.163459
796.984474,0.025000,0.073951
797.017836,0.275000,0.129301
797.051197,0.425000,0.339807
797.084558,0.300000,0.158114
797.117918,1.975000,0.343466
797.151279,5.625000,0.468208
797.184639,24.325000,1.526587
797.217998,49.700000,2.033470
797.251358,64.275000,1.408179
797.284717,44.000000,1.461592
797.318076,13.525000,1.203316
797.351434,3.775000,0.842151
797.384793,0.725000,0.191621
797.418151,0.725000,0.238157
797.451508,0.133333,0.081650
797.484866,0.175000,0.119242
797.518223,0.175000,0.073951
797.551580,0.050000,0.195256
797.584936,0.325000,0.235518
797.618292,-0.150000,0.025000
797.651648,0.200000,0.127475
797.685004,0.100000,0.050000
797.718360,0.100000,0.093541
797.751715,0.325000,0.188331
797.785069,0.225000,0.041458
797.818424,0.625000,0.544719
797.851778,0.000000,0.079057
797.885132,-0.200000,0.176777
797.918486,0.200000,0.117260
797.951839,0.300000,0.237171
797.985192,0.375000,0.221853
798.018545,0.425000,0.230149
798.051898,0.125000,0.041458
798.085250,0.250000,0.082916
798.118602,0.075000,0.119242
798.151954,0.025000,0.119242
798.185305,-0.025000,0.124373
798.218656,0.250000,0.129904
798.252007,0.250000,0.163936
798.285357,0.675000,0.272431
798.318708,0.200000,0.093541
798.352057,0.300000,0.061237
798.385407,0.425000,0.108253
798.418756,0.200000,0.127475
798.452106,0.450000,0.175000
798.485454,0.025000,0.198037
798.518803,0.300000,0.061237
798.552151,0.225000,0.216145
798.585499,0.525000,0.167239
798.618847,0.075000,0.296595
798.652194,0.050000,0.025000
798.685541,0.450000,0.204634
798.718888,0.225000,0.096014
798.752234,0.475000,0.198037
798.785580,0.375000,0.064952
798.818926,0.550000,0.230489
798.852272,-0.050000,0.103078
798.885617,-0.125000,0.188331
798.918962,0.375000,0.124373
798.952307,0.300000,0.215058
798.985651,0.925000,0.339807
799.018996,1.175000,0.265460
799.052339,5.666667,0.391046
799.085683,33.350000,2.645161
799.119026,74.133333,0.469486
799.152369,104.225000,1.892213
799.185712,62.233333,2.303892
799.219054,20.566667,0.248328
799.252397,5.225000,0.279229
799.285738,0.275000,0.167239
799.319080,0.050000,0.025000
799.352421,0.075000,0.054486
799.385762,0.125000,0.064952
799.419103,0.425000,0.147373
799.452443,0.100000,0.136931
799.485783,0.125000,0.081968
799.519123,0.275000,0.248433
799.552463,0.075000,0.081968
799.585802,0.175000,0.073951
799.619141,0.000000,0.061237
799.652480,-0.100000,0.106066
799.685818,-0.075000,0.255869
799.719156,0.400000,0.093541
799.752494,0.550000,0.305164
799.785831,0.125000,0.167239
799.819169,0.350000,0.309233
799.852506,0.175000,0.134048
799.885842,-0.100000,0.050000
799.919179,-0.025000,0.096014
799.952515,0.050000,0.114564
799.985850,0.125000,0.064952
800.019186,0.275000,0.113880
800.052521,0.700000,0.176777
800.085856,0.450000,0.175000
800.119191,0.875000,0.480072
800.152525,0.400000,0.237171
800.185859,0.525000,0.232849
800.219193,0.775000,0.272431
800.252526,0.350000,0.129904
800.285859,0.400000,0.093541
800.319192,0.225000,0.096014
800.352525,0.225000,0.138632
800.385857,0.225000,0.174553
800.419189,0.775000,0.181573
800.452521,0.525000,0.113880
800.485852,0.825000,0.442118
800.519183,-0.075000,0.198037
800.552514,-0.075000,0.167239
800.585844,-0.175000,0.427748
800.619175,0.850000,0.241091
800.652505,0.825000,0.429207
800.685834,0.675000,0.210283
800.719164,0.450000,0.114564
800.752493,0.400000,0.106066
800.785821,0.350000,0.160078
800.819150,0.400000,0.346410
800.852478,0.325000,0.021651
800.885806,0.375000,0.134048
800.919134,1.575000,0.490376
800.952461,6.125000,0.288043
800.985788,36.166667,1.154520
801.019115,128.000000,1.891758
801.052441,215.133333,5.631644
801.085767,178.750000,5.876808
801.119093,78.300000,4.936725
801.152419,16.633333,1.886244
801.185744,3.125000,0.265460
801.219069,0.350000,0.361421
801.252394,0.550000,0.277263
801.285718,0.950000,0.510514
801.319042,0.575000,0.188331
801.352366,-0.025000,0.041458
801.385690,0.650000,0.108972
801.419013,-0.150000,0.235850
801.452336,0.400000,0.455522
801.485658,-0.075000,0.648436
801.518981,0.725000,0.267804
801.552303,-0.200000,0.093541
801.585625,0.250000,0.167705
801.618946,0.075000,0.155624
801.652267,-0.225000,0.081968
801.685588,0.375000,0.296595
801.718909,0.200000,0.173205
801.752229,0.425000,0.143069
801.785549,0.225000,0.089268
801.818869,0.525000,0.198037
801.852188,-0.325000,0.054486
801.885507,0.300000,0.106066
801.918826,0.250000,0.114564
801.952145,0.025000,0.073951
801.985463,-0.125000,0.096014
802.018781,0.625000,0.073951
802.052099,0.750000,0.396074
802.085416,0.575000,0.260708
802.118733,0.300000,0.127475
802.152050,0.350000,0.103078
802.185366,0.200000,0.122474
802.218683,0.125000,0.064952
802.251999,0.550000,0.188746
802.285314,-0.150000,0.075000
802.318630,0.500000,0.117260
802.351945,0.025000,0.089268
802.385259,0.275000,0.054486
802.418574,0.225000,0.124373
802.451888,0.475000,0.113880
802.485202,0.425000,0.181573
802.518515,-0.100000,0.035355
802.551829,0.400000,0.111803
802.585142,0.825000,0.240767
802.618454,0.475000,0.089268
802.651767,1.225000,0.607634
802.685079,-0.475000,0.227418
802.718391,0.325000,0.224653
802.751702,0.275000,0.151554
802.785013,0.450000,0.075000
802.818324,1.100000,0.302076
802.851635,2.075000,0.566100
802.884945,10.500000,0.828402
802.918255,68.975000,1.848437
802.951565,191.600000,2.641732
802.984874,242.375000,1.273467
803.018184,172.350000,8.348690
803.051492,46.966667,1.878940
803.084801,7.325000,1.661842
803.118109,1.400000,0.379144
803.151417,0.475000,0.336108
803.184725,0.825000,0.201168
803.218032,0.300000,0.127475
803.251339,0.250000,0.103078
803.284646,0.875000,0.334244
803.317953,0.375000,0.151554
803.351259,-0.200000,0.237171
803.384565,0.100000,0.093541
803.417870,0.050000,0.147902
803.451176,0.450000,0.025000
803.484481,0.200000,0.086603
803.517786,0.525000,0.129301
803.551090,0.650000,0.363146
803.584394,0.325000,0.143069
803.617698,0.200000,0.127475
803.651002,0.900000,0.154110
803.684305,0.300000,0.127475
803.717608,0.950000,0.321131
803.750910,0.675000,0.368061
803.784213,1.775000,0.582425
803.817515,0.625000,0.245904
803.850817,0.375000,0.339807
803.884118,0.800000,0.106066
803.917419,0.775000,0.167239
803.950720,0.550000,0.152069
803.984021,0.200000,0.035355
804.017321,0.625000,0.207289
804.050621,0.325000,0.113880
804.083921,0.675000,0.316968
804.117220,0.650000,0.279508
804.150519,0.800000,0.289396
804.183818,0.975000,0.337963
804.217117,-0.025000,0.163459
804.250415,0.450000,0.201556
804.283713,0.450000,0.114564
804.317011,0.325000,0.081968
804.350308,0.675000,0.536627
804.383605,0.100000,0.050000
804.416902,0.875000,0.174553
804.450198,0.450000,0.125000
804.483494,0.500000,0.247487
804.516790,1.700000,0.601041
804.550086,0.175000,0.163459
804.583381,0.200000,0.070711
804.616676,0.950000,0.394493
804.649971,0.825000,0.369755
804.683265,0.025000,0.054486
804.716559,-0.125000,0.163459
804.749853,1.125000,0.456036
804.783146,2.350000,0.246221
804.816440,15.000000,0.601041
804.849732,90.725000,2.906969
804.883025,268.425000,10.663101
804.916317,312.450000,5.062176
804.949609,184.575000,11.470199
804.982901,51.033333,2.192126
805.016192,7.000000,0.176777
805.049484,1.800000,0.340955
805.082774,-0.200000,0.086603
805.116065,0.800000,0.302076
805.149355,0.400000,0.252488
805.182645,0.425000,0.138632
805.215935,0.550000,0.103078
805.249224,0.225000,0.096014
805.282513,0.400000,0.173205
805.315802,0.400000,0.206155
805.349090,0.025000,0.041458
805.382378,0.325000,0.119242
805.415666,0.650000,0.178536
805.448954,0.600000,0.093541
805.482241,1.000000,0.154110
805.515528,0.525000,0.250936
805.548815,1.025000,0.288043
805.582101,0.450000,0.167705
805.615387,0.300000,0.203101
805.648673,0.500000,0.206155
805.681958,0.350000,0.175000
805.715243,0.750000,0.256174
805.748528,0.400000,0.169558
805.781813,0.275000,0.248433
805.815097,0.925000,0.265460
805.848381,0.900000,0.598957
805.881665,0.250000,0.125000
805.914948,0.775000,0.263095
805.948231,0.325000,0.188331
805.981514,0.375000,0.300780
806.014796,0.300000,0.127475
806.048079,0.775000,0.143069
806.081360,0.500000,0.173205
806.114642,0.500000,0.117260
806.147923,0.100000,0.209165
806.181204,0.425000,0.163459
806.214485,0.325000,0.357727
806.247765,0.650000,0.400780
806.281046,0.725000,0.230149
806.314325,-0.125000,0.041458
806.347605,0.675000,0.216145
806.380884,0.025000,0.155624
806.414163,0.425000,0.238157
806.447441,0.525000,0.207289
806.480720,0.875000,0.285865
806.513998,0.150000,0.103078
806.547275,0.725000,0.191621
806.580553,0.900000,0.302076
806.613830,0.725000,0.480072
806.647107,0.875000,0.191621
806.680383,1.850000,0.439460
806.713659,2.475000,0.227418
806.746935,13.450000,0.403887
806.780211,87.266667,4.327287
806.813486,345.125000,4.016742
806.846761,563.000000,4.226849
806.880036,372.225000,14.710429
806.913310,111.450000,3.613949
806.946584,12.533333,0.602426
806.979858,3.225000,0.852478
807.013132,0.900000,0.434454
807.046405,1.250000,0.326917
807.079678,0.700000,0.335410
807.112951,0.575000,0.224653
807.146223,0.275000,0.221853
807.179495,0.375000,0.198037
807.212767,0.025000,0.549289
807.246038,0.450000,0.043301
807.279309,0.350000,0.143614
807.312580,0.175000,0.181573
807.345850,0.075000,0.054486
807.379121,0.750000,0.317214
807.412390,1.000000,0.215058
807.445660,0.300000,0.150000
807.478929,0.875000,0.210283
807.512198,0.400000,0.196850
807.545467,0.425000,0.366359
807.578735,0.375000,0.245904
807.612004,-0.125000,0.221853
807.645271,0.975000,0.374792
807.678539,-0.050000,0.147902
807.711806,1.300000,0.478278
807.745073,1.225000,0.288043
807.778340,1.025000,0.399022
807.811606,1.250000,0.279508
807.844872,1.725000,0.771666
807.878138,0.775000,0.337963
807.911403,0.825000,0.510361
807.944668,0.550000,0.075000
807.977933,0.150000,0.129904
808.011197,0.850000,0.265754
808.044462,0.525000,0.163459
808.077725,0.250000,0.182003
808.110989,0.425000,0.089268
808.144252,0.650000,0.195256
808.177515,1.150000,0.258602
808.210778,0.350000,0.188746
808.244040,0.875000,0.238157
808.277302,0.575000,0.270127
808.310564,1.225000,0.296595
808.343826,0.800000,0.306186
808.377087,0.800000,0.220794
808.410348,0.650000,0.152069
808.443608,0.700000,0.187083
808.476869,0.375000,0.143069
808.510129,0.925000,0.306951
808.543388,0.875000,0.408312
808.576648,1.025000,0.216145
808.609907,0.725000,0.267804
808.643165,2.275000,0.167239
808.676424,4.550000,0.520216
808.709682,33.666667,0.866266
808.742940,246.300000,2.408838
808.776197,749.475000,5.598256
808.809455,792.775000,20.807011
808.842712,315.066667,10.544212
808.875968,63.300000,3.138670
808.909225,7.133333,1.653154
808.942481,1.300000,0.603117
808.975736,0.033333,0.113652
809.008992,0.075000,0.089268
809.042247,0.725000,0.368061
809.075502,0.825000,0.274716
809.108756,-0.300000,0.318198
809.142011,1.025000,0.310996
809.175265,0.575000,0.151554
809.208518,1.000000,0.229129
809.241772,0.050000,0.103078
809.275025,0.750000,0.134629
809.308277,0.275000,0.447737
809.341530,0.550000,0.114564
809.374782,1.400000,0.434454
809.408034,1.175000,0.108253
809.441285,0.650000,0.413068
809.474536,0.200000,0.212132
809.507787,0.400000,0.384057
809.541038,0.450000,0.251247
809.574288,1.150000,0.394493
809.607538,0.650000,0.283945
809.640788,0.475000,0.288043
809.674037,1.450000,0.597390
809.707286,1.050000,0.356195
809.740535,1.125000,0.198037
809.773783,1.850000,0.820442
809.807032,1.150000,0.364863
809.840279,0.525000,0.397453
809.873527,0.750000,0.512957
809.906774,0.700000,0.165831
809.940021,0.850000,0.419076
809.973268,1.350000,0.343693
810.006514,0.650000,0.241091
810.039760,0.475000,0.174553
810.073006,0.800000,0.093541
810.106251,1.000000,0.183712
810.139497,1.250000,0.129904
810.172741,1.225000,0.392707
810.205986,0.900000,0.237171
810.239230,0.400000,0.234521
810.272474,1.725000,0.314990
810.305718,2.300000,0.302076
810.338961,1.850000,0.453459
810.372204,1.225000,0.461485
810.405447,1.325000,0.490376
810.438689,1.825000,0.248433
810.471931,1.200000,0.385681
810.505173,1.725000,0.426285
810.538414,2.225000,0.288043
810.571656,1.325000,0.151554
810.604897,5.875000,0.800293
810.638137,9.000000,0.722842
810.671377,74.975000,3.693301
810.704617,516.925000,16.138555
810.737857,1394.225000,17.676304
810.771096,1278.650000,37.156367
810.804335,485.050000,15.576364
810.837574,55.000000,0.954594
810.870813,8.066667,0.717925
810.904051,2.375000,0.456036
810.937288,0.825000,0.219018
810.970526,0.750000,0.279508
811.003763,0.600000,0.443001
811.037000,0.750000,0.384870
811.070237,0.300000,0.220794
811.103473,0.375000,0.361205
811.136709,0.300000,0.340955
811.169945,-0.050000,0.216506
811.203180,0.900000,0.350000
811.236415,0.475000,0.143069
811.269650,-0.050000,0.219374
811.302884,0.175000,0.213234
811.336119,0.500000,0.382426
811.369352,0.375000,0.198037
811.402586,0.900000,0.266927
811.435819,2.600000,0.724569
811.469052,2.575000,1.245178
811.502285,4.400000,0.471699
811.535517,0.275000,0.646505
811.568749,1.000000,1.141819
811.601981,1.550000,0.763626
811.635212,-0.325000,0.198037
811.668443,0.600000,0.333542
811.701674,0.875000,0.129301
811.734905,1.400000,0.471699
811.768135,0.125000,0.096014
811.801365,0.950000,0.108972
811.834594,0.625000,0.562778
811.867824,0.325000,0.240767
811.901053,0.075000,0.073951
811.934281,-0.150000,0.305164
811.967510,0.075000,0.129301
812.000738,-0.050000,0.125000
812.033965,0.000000,0.106066
812.067193,0.150000,0.219374
812.100420,0.425000,0.167239
812.133647,0.075000,0.221853
812.166873,-0.650000,0.350892
812.200099,0.350000,0.152069
812.233325,0.275000,0.163459
812.266551,0.625000,0.348882
812.299776,0.575000,0.512805
812.333001,0.325000,0.021651
812.366226,0.250000,0.204634
812.399450,0.275000,0.081968
812.432674,0.500000,0.337268
812.465898,0.025000,0.318934
812.499121,0.700000,0.310242
812.532345,0.525000,0.119242
812.565567,1.250000,0.301040
812.598790,2.475000,0.403694
812.632012,14.766667,0.788458
812.665234,124.500000,2.035927
812.698456,493.350000,8.297778
812.731677,576.875000,15.125780
812.764898,214.925000,6.309455
812.798119,29.300000,0.353553
812.831339,5.125000,0.980673
812.864559,2.475000,0.658004
812.897779,0.250000,0.129904
812.930998,0.475000,0.134048
812.964217,0.325000,0.138632
812.997436,-0.200000,0.061237
813.030655,0.375000,0.143069
813.063873,-0.125000,0.129301
813.097091,0.100000,0.050000
813.130308,-0.300000,0.206155
813.163526,0.025000,0.096014
813.196743,-0.125000,0.096014
813.229959,0.425000,0.296595
813.263176,0.050000,0.114564
813.296392,-0.125000,0.096014
813.329607,0.075000,0.143069
813.362823,0.025000,0.054486
813.396038,0.150000,0.195256
813.429253,-0.050000,0.082916
813.462467,0.125000,0.369755
813.495682,0.225000,0.224653
813.528895,0.300000,0.231840
813.562109,-0.025000,0.089268
813.595322,0.275000,0.021651
813.628535,0.375000,0.240767
813.661748,0.725000,0.267804
813.694960,0.050000,0.195256
813.728172,-0.025000,0.167239
813.761384,0.075000,0.270127
813.794596,-0.525000,0.113880
813.827807,-0.475000,0.021651
813.861017,-0.175000,0.064952
813.894228,0.200000,0.093541
813.927438,0.450000,0.134629
813.960648,0.275000,0.096014
813.993858,-0.200000,0.150000
814.027067,0.300000,0.061237
814.060276,-0.000000,0.086603
814.093485,-0.275000,0.054486
814.126693,0.125000,0.089268
814.159901,-0.200000,0.154110
814.193109,-0.525000,0.054486
814.226316,0.150000,0.043301
814.259523,0.675000,0.529593
814.292730,0.600000,0.223607
814.325936,0.350000,0.188746
814.359143,0.075000,0.124373
814.392348,0.325000,0.170935
814.425554,0.125000,0.151554
814.458759,0.250000,0.178536
814.491964,0.000000,0.237171
814.525169,0.475000,0.470870
814.558373,-0.175000,0.113880
814.591577,-0.125000,0.119242
814.624781,1.150000,0.678694
814.657984,1.125000,0.263095
