#{
#    "background_file": "Backgrounds\\\\bg_787.999nm_16bin_197st_244en_10.0s_110g_4x_1_seq.txt",
#    "ccd_image_settings": [
#        1,
#        16,
#        1,
#        1600,
#        197,
#        244
#    ],
#    "ccd_temperature": "-88",
#    "cdRatios": {
#        "mean": 0.9077267194023897,
#        "std": 0.004962273607101428
#    },
#    "center_lambda": 788.0,
#    "comments": "",
#    "dark_region": 0.3005111201762913,
#    "date": "11/17/19 14:31:19PM",
#    "eff_field": 1.5,
#    "exposure": 10.0,
#    "fel_lambda": "15.0",
#    "fel_pol": "H",
#    "fel_pulses": 40,
#    "fel_pyro_cal": "0.017",
#    "fel_reprate": "1.07",
#    "fel_transmission": "1.0",
#    "fel_transmission_fits": {
#        "A": 1.0,
#        "C": 0.0,
#        "Mu": 0.0
#    },
#    "fieldInt": {
#        "mean": 10136.43075,
#        "std": 198.83686303648503
#    },
#    "fieldStrength": {
#        "mean": 46.189136363636365,
#        "std": 0.45772106479131636
#    },
#    "fpTime": {
#        "mean": 1.3516022233574716,
#        "std": 0.05825233460715791
#    },
#    "gain": 110,
#    "grating": 3,
#    "images_in_sequence": [
#        "hsg_SpotD_crystal16_an45_HAna141.txt",
#        "hsg_SpotD_crystal16_an45_HAna142.txt",
#        "hsg_SpotD_crystal16_an45_HAna143.txt",
#        "hsg_SpotD_crystal16_an45_HAna144.txt"
#    ],
#    "nir_lambda": "820.9918",
#    "nir_pola": "-45",
#    "nir_polg": "0",
#    "nir_power": "100.0",
#    "pulseEnergies": {
#        "mean": 2.240340909090909,
#        "std": 0.05109162957744706
#    },
#    "pyroVoltage": {
#        "mean": 0.14524554077238389,
#        "std": 0.0038713000438827063
#    },
#    "rotatorAngle": 45.0,
#    "sample_Temp": "58",
#    "sample_name": "L001218.C3",
#    "series": "SpotD_16_-45",
#    "slits": "60",
#    "spec_step": "",
#    "window_trans": 0.92,
#    "y_max": 2,
#    "y_min": 1
#}
#
#
#
#
#
#
#
#
#
#
#
#
#
#
#
#
#
#
#
#
#
#
#
#
#
#
Wavelength,Signal,error
nm,arb. u.,arb.u.
Wavelength,SpotD_16_-45,error
761.200217,0.150000,0.305164
761.233859,-0.200000,0.000000
761.267500,0.375000,0.213234
761.301141,-0.225000,0.113880
761.334781,0.050000,0.108972
761.368422,-0.175000,0.240767
761.402062,-0.050000,0.043301
761.435702,-0.200000,0.035355
761.469342,-0.225000,0.138632
761.502981,-0.150000,0.114564
761.536620,-0.075000,0.113880
761.570259,-0.000000,0.093541
761.603898,0.025000,0.230149
761.637537,-0.100000,0.183712
761.671175,-0.275000,0.064952
761.704813,-0.050000,0.082916
761.738451,0.000000,0.111803
761.772088,-0.125000,0.073951
761.805726,-0.100000,0.145774
761.839363,-0.225000,0.054486
761.873000,-0.400000,0.122474
761.906636,-0.200000,0.141421
761.940273,-0.025000,0.108253
761.973909,-0.025000,0.096014
762.007545,0.075000,0.102317
762.041180,-0.100000,0.154110
762.074816,-0.125000,0.041458
762.108451,0.150000,0.075000
762.142086,0.125000,0.143069
762.175720,-0.050000,0.075000
762.209355,0.000000,0.176777
762.242989,0.100000,0.035355
762.276623,-0.075000,0.073951
762.310257,0.025000,0.198037
762.343890,-0.475000,0.041458
762.377524,-0.300000,0.070711
762.411157,0.100000,0.183712
762.444789,0.150000,0.143614
762.478422,0.175000,0.167239
762.512054,-0.200000,0.035355
762.545686,0.225000,0.318934
762.579318,0.100000,0.093541
762.612950,0.050000,0.082916
762.646581,-0.325000,0.102317
762.680212,0.150000,0.188746
762.713843,-0.050000,0.134629
762.747474,0.525000,0.240767
762.781104,0.000000,0.355317
762.814734,-0.675000,0.119242
762.848364,-0.225000,0.163459
762.881994,-0.075000,0.021651
762.915623,0.050000,0.134629
762.949252,-0.075000,0.163459
762.982881,0.500000,0.289396
763.016510,0.325000,0.253414
763.050139,-0.200000,0.106066
763.083767,-0.000000,0.215058
763.117395,0.000000,0.035355
763.151023,0.175000,0.147373
763.184650,0.125000,0.096014
763.218277,-0.200000,0.145774
763.251904,-0.125000,0.108253
763.285531,0.025000,0.238157
763.319158,0.075000,0.041458
763.352784,-0.125000,0.143069
763.386410,-0.425000,0.124373
763.420036,-0.375000,0.276981
763.453661,0.475000,0.298695
763.487287,-0.050000,0.328824
763.520912,-1.100000,0.035355
763.554537,0.425000,0.292350
763.588161,-0.225000,0.089268
763.621786,-0.025000,0.041458
763.655410,0.150000,0.114564
763.689034,-0.375000,0.102317
763.722657,-0.300000,0.086603
763.756281,0.175000,0.188331
763.789904,0.075000,0.073951
763.823527,0.325000,0.207289
763.857150,-0.025000,0.181573
763.890772,-0.125000,0.073951
763.924394,-0.050000,0.103078
763.958016,-0.075000,0.054486
763.991638,0.350000,0.103078
764.025260,0.000000,0.093541
764.058881,-0.050000,0.103078
764.092502,-0.375000,0.041458
764.126123,0.450000,0.201556
764.159743,0.050000,0.160078
764.193363,-0.175000,0.073951
764.226983,0.125000,0.054486
764.260603,0.525000,0.427748
764.294223,0.125000,0.134048
764.327842,0.000000,0.093541
764.361461,0.550000,0.275000
764.395080,-0.125000,0.064952
764.428699,-0.100000,0.154110
764.462317,-0.050000,0.090139
764.495935,-0.275000,0.041458
764.529553,0.025000,0.021651
764.563170,0.350000,0.075000
764.596788,0.225000,0.089268
764.630405,0.125000,0.318934
764.664022,-0.275000,0.201168
764.697638,0.025000,0.073951
764.731255,0.025000,0.096014
764.764871,0.100000,0.093541
764.798487,-0.225000,0.143069
764.832103,-0.000000,0.145774
764.865718,0.150000,0.090139
764.899333,-0.025000,0.129301
764.932948,-0.075000,0.134048
764.966563,0.350000,0.270416
765.000177,0.675000,0.412879
765.033792,0.150000,0.283945
765.067406,-0.075000,0.064952
765.101019,-0.025000,0.108253
765.134633,-0.325000,0.054486
765.168246,0.025000,0.054486
765.201859,0.025000,0.096014
765.235472,0.300000,0.231840
765.269084,0.525000,0.283670
765.302697,-0.050000,0.075000
765.336309,0.150000,0.103078
765.369920,0.425000,0.174553
765.403532,-0.000000,0.162019
765.437143,-0.325000,0.073951
765.470754,0.075000,0.073951
765.504365,0.050000,0.125000
765.537976,-0.050000,0.075000
765.571586,-0.250000,0.090139
765.605196,-0.075000,0.230149
765.638806,0.075000,0.064952
765.672416,0.050000,0.082916
765.706025,0.100000,0.257391
765.739634,0.125000,0.054486
765.773243,0.250000,0.103078
765.806851,0.100000,0.061237
765.840460,0.125000,0.143069
765.874068,0.050000,0.108972
765.907676,-0.200000,0.061237
765.941284,-0.100000,0.070711
765.974891,0.000000,0.106066
766.008498,-0.050000,0.025000
766.042105,0.025000,0.134048
766.075712,0.425000,0.368061
766.109318,0.650000,0.394493
766.142924,0.500000,0.262202
766.176530,0.250000,0.309233
766.210136,0.275000,0.163459
766.243741,-0.050000,0.082916
766.277347,-0.150000,0.055902
766.310951,0.000000,0.237171
766.344556,-0.125000,0.081968
766.378161,0.200000,0.086603
766.411765,0.100000,0.271570
766.445369,-0.175000,0.073951
766.478973,-0.175000,0.064952
766.512576,0.200000,0.061237
766.546179,0.200000,0.162019
766.579782,-0.175000,0.134048
766.613385,0.150000,0.108972
766.646988,0.575000,0.412879
766.680590,-0.000000,0.093541
766.714192,0.275000,0.221853
766.747794,0.050000,0.251247
766.781395,0.425000,0.178098
766.814996,-0.475000,0.054486
766.848597,-0.025000,0.143069
766.882198,0.025000,0.147373
766.915799,0.200000,0.302076
766.949399,0.050000,0.134629
766.982999,-0.175000,0.041458
767.016599,-0.300000,0.061237
767.050198,0.075000,0.113880
767.083798,0.050000,0.075000
767.117397,0.300000,0.369121
767.150996,-0.075000,0.181573
767.184594,-0.300000,0.061237
767.218193,-0.025000,0.096014
767.251791,-0.350000,0.075000
767.285389,-0.475000,0.064952
767.318986,-0.125000,0.064952
767.352583,0.150000,0.075000
767.386181,-0.075000,0.064952
767.419777,-0.200000,0.136931
767.453374,0.250000,0.103078
767.486970,-0.525000,0.073951
767.520567,0.150000,0.090139
767.554162,-0.300000,0.093541
767.587758,0.200000,0.061237
767.621353,0.100000,0.070711
767.654949,-0.200000,0.162019
767.688543,0.000000,0.122474
767.722138,0.075000,0.054486
767.755732,0.200000,0.106066
767.789327,0.000000,0.237171
767.822921,-0.175000,0.167239
767.856514,-0.275000,0.064952
767.890108,0.325000,0.064952
767.923701,0.775000,0.439282
767.957294,0.800000,0.293684
767.990886,0.225000,0.194856
768.024479,0.000000,0.061237
768.058071,0.150000,0.147902
768.091663,-0.125000,0.134048
768.125255,-0.225000,0.096014
768.158846,0.150000,0.055902
768.192437,-0.325000,0.089268
768.226028,-0.275000,0.102317
768.259619,-0.200000,0.093541
768.293209,0.025000,0.102317
768.326799,0.300000,0.310242
768.360389,-0.100000,0.035355
768.393979,0.025000,0.041458
768.427568,0.050000,0.075000
768.461158,0.175000,0.073951
768.494747,0.175000,0.272431
768.528335,-0.050000,0.055902
768.561924,0.350000,0.147902
768.595512,0.100000,0.061237
768.629100,0.150000,0.075000
768.662688,-0.125000,0.124373
768.696275,-0.075000,0.230149
768.729862,-0.100000,0.079057
768.763449,0.150000,0.129904
768.797036,-0.275000,0.129301
768.830623,0.200000,0.150000
768.864209,0.475000,0.457404
768.897795,0.200000,0.145774
768.931381,0.000000,0.117260
768.964966,-0.150000,0.055902
768.998551,0.125000,0.073951
769.032136,0.300000,0.217945
769.065721,-0.100000,0.079057
769.099305,0.050000,0.143614
769.132890,-0.300000,0.000000
769.166474,0.250000,0.225000
769.200057,-0.425000,0.054486
769.233641,-0.050000,0.134629
769.267224,-0.125000,0.064952
769.300807,-0.375000,0.159589
769.334390,-0.125000,0.143069
769.367972,0.225000,0.143069
769.401555,-0.075000,0.219018
769.435137,-0.075000,0.054486
769.468718,0.150000,0.188746
769.502300,0.100000,0.154110
769.535881,-0.100000,0.141421
769.569462,-0.450000,0.075000
769.603043,0.050000,0.321131
769.636623,0.350000,0.134629
769.670204,0.225000,0.102317
769.703784,0.600000,0.410792
769.737364,0.875000,0.313000
769.770943,0.625000,0.400586
769.804522,0.175000,0.313000
769.838101,0.125000,0.240767
769.871680,-0.125000,0.096014
769.905259,-0.075000,0.204252
769.938837,0.125000,0.198037
769.972415,-0.175000,0.054486
770.005993,-0.150000,0.055902
770.039570,0.075000,0.054486
770.073147,0.025000,0.163459
770.106724,-0.150000,0.075000
770.140301,0.050000,0.108972
770.173878,0.100000,0.180278
770.207454,0.075000,0.210283
770.241030,-0.025000,0.041458
770.274606,0.050000,0.055902
770.308181,0.025000,0.081968
770.341757,-0.025000,0.054486
770.375332,-0.025000,0.064952
770.408906,-0.100000,0.093541
770.442481,-0.350000,0.143614
770.476055,-0.075000,0.194856
770.509629,0.175000,0.081968
770.543203,-0.150000,0.055902
770.576776,-0.025000,0.108253
770.610350,0.125000,0.054486
770.643923,-0.025000,0.081968
770.677495,0.000000,0.079057
770.711068,-0.150000,0.090139
770.744640,-0.075000,0.159589
770.778212,0.200000,0.145774
770.811784,-0.125000,0.064952
770.845356,0.000000,0.154110
770.878927,0.200000,0.117260
770.912498,0.400000,0.237171
770.946069,-0.100000,0.000000
770.979639,-0.100000,0.127475
771.013209,0.150000,0.082916
771.046779,-0.075000,0.138632
771.080349,-0.100000,0.061237
771.113919,-0.125000,0.073951
771.147488,0.075000,0.064952
771.181057,0.100000,0.111803
771.214626,0.200000,0.187083
771.248194,-0.225000,0.073951
771.281762,0.450000,0.265754
771.315330,-0.125000,0.073951
771.348898,0.275000,0.181573
771.382465,-0.125000,0.167239
771.416033,0.200000,0.127475
771.449600,0.850000,0.585769
771.483166,0.275000,0.096014
771.516733,0.625000,0.073951
771.550299,0.750000,0.256174
771.583865,0.200000,0.154110
771.617431,0.025000,0.073951
771.650996,-0.050000,0.075000
771.684562,0.200000,0.154110
771.718127,-0.075000,0.102317
771.751691,0.100000,0.061237
771.785256,-0.075000,0.238157
771.818820,-0.225000,0.081968
771.852384,0.325000,0.096014
771.885948,0.100000,0.106066
771.919511,0.025000,0.255869
771.953074,0.125000,0.073951
771.986637,0.050000,0.103078
772.020200,0.075000,0.201168
772.053762,0.175000,0.108253
772.087325,-0.075000,0.081968
772.120887,-0.150000,0.108972
772.154448,0.125000,0.108253
772.188010,0.050000,0.163936
772.221571,-0.050000,0.246221
772.255132,0.325000,0.151554
772.288692,0.750000,0.536773
772.322253,1.025000,0.389511
772.355813,-0.175000,0.108253
772.389373,-0.325000,0.178098
772.422933,-0.175000,0.124373
772.456492,0.550000,0.422049
772.490051,0.300000,0.196850
772.523610,-0.075000,0.147373
772.557169,-0.150000,0.082916
772.590727,-0.050000,0.055902
772.624285,-0.025000,0.124373
772.657843,0.025000,0.041458
772.691401,-0.250000,0.219374
772.724958,0.075000,0.119242
772.758515,-0.150000,0.103078
772.792072,-0.000000,0.150000
772.825629,-0.050000,0.108972
772.859185,0.025000,0.143069
772.892741,-0.125000,0.178098
772.926297,0.025000,0.147373
772.959853,0.000000,0.079057
772.993408,-0.800000,0.117260
773.026963,-0.300000,0.070711
773.060518,0.075000,0.102317
773.094073,-0.275000,0.041458
773.127627,0.100000,0.093541
773.161181,0.375000,0.221853
773.194735,0.225000,0.207289
773.228289,0.700000,0.519615
773.261842,1.175000,0.270127
773.295395,1.250000,0.354436
773.328948,1.200000,0.196850
773.362500,0.600000,0.231840
773.396053,0.025000,0.250936
773.429605,0.850000,0.680533
773.463157,0.250000,0.129904
773.496708,0.475000,0.288043
773.530260,-0.075000,0.143069
773.563811,0.000000,0.237171
773.597361,-0.150000,0.043301
773.630912,-0.075000,0.064952
773.664462,0.175000,0.064952
773.698012,0.050000,0.195256
773.731562,0.500000,0.306186
773.765111,-0.075000,0.041458
773.798661,-0.075000,0.096014
773.832210,-0.025000,0.041458
773.865758,0.075000,0.178098
773.899307,0.000000,0.061237
773.932855,0.375000,0.188331
773.966403,-0.225000,0.143069
773.999951,0.375000,0.357727
774.033498,-0.100000,0.061237
774.067046,0.100000,0.061237
774.100593,0.325000,0.232849
774.134139,0.075000,0.124373
774.167686,-0.050000,0.090139
774.201232,0.025000,0.073951
774.234778,0.300000,0.093541
774.268324,0.125000,0.198037
774.301869,-0.125000,0.167239
774.335414,-0.325000,0.064952
774.368959,-0.075000,0.021651
774.402504,0.150000,0.134629
774.436048,0.025000,0.314990
774.469592,0.075000,0.041458
774.503136,-0.075000,0.134048
774.536680,-0.050000,0.125000
774.570223,0.250000,0.090139
774.603766,0.250000,0.227761
774.637309,0.250000,0.055902
774.670852,-0.100000,0.127475
774.704394,-0.125000,0.113880
774.737936,-0.200000,0.035355
774.771478,-0.350000,0.075000
774.805020,-0.050000,0.082916
774.838561,0.175000,0.143069
774.872102,0.300000,0.111803
774.905643,0.025000,0.054486
774.939183,0.100000,0.035355
774.972724,0.550000,0.043301
775.006264,0.175000,0.204252
775.039804,0.700000,0.418330
775.073343,0.750000,0.496865
775.106882,0.500000,0.093541
775.140421,0.400000,0.196850
775.173960,-0.075000,0.369755
775.207499,-0.375000,0.041458
775.241037,-0.075000,0.073951
775.274575,-0.175000,0.021651
775.308113,-0.025000,0.089268
775.341650,0.525000,0.143069
775.375187,0.100000,0.061237
775.408724,-0.275000,0.021651
775.442261,-0.325000,0.021651
775.475798,-0.050000,0.160078
775.509334,0.025000,0.108253
775.542870,-0.100000,0.070711
775.576405,-0.225000,0.124373
775.609941,0.625000,0.458769
775.643476,0.025000,0.041458
775.677011,-0.375000,0.096014
775.710546,1.075000,0.563887
775.744080,0.100000,0.035355
775.777614,-0.175000,0.041458
775.811148,-0.150000,0.055902
775.844682,0.275000,0.232849
775.878215,-0.150000,0.201556
775.911748,0.175000,0.267804
775.945281,-0.125000,0.096014
775.978814,-0.325000,0.021651
776.012346,-0.075000,0.089268
776.045878,-0.100000,0.180278
776.079410,0.075000,0.108253
776.112941,0.150000,0.143614
776.146473,0.125000,0.089268
776.180004,-0.150000,0.147902
776.213535,0.025000,0.073951
776.247065,0.025000,0.096014
776.280595,-0.125000,0.073951
776.314125,-0.050000,0.090139
776.347655,-0.175000,0.089268
776.381185,-0.250000,0.075000
776.414714,0.325000,0.064952
776.448243,0.125000,0.216145
776.481772,0.475000,0.318934
776.515300,0.100000,0.136931
776.548828,-0.025000,0.054486
776.582356,-0.300000,0.093541
776.615884,-0.150000,0.114564
776.649411,-0.050000,0.055902
776.682938,-0.075000,0.054486
776.716465,0.100000,0.093541
776.749992,0.125000,0.198037
776.783518,0.275000,0.255869
776.817044,1.000000,0.392110
776.850570,1.225000,0.384667
776.884096,2.250000,0.683283
776.917621,1.500000,0.320156
776.951146,1.700000,0.544289
776.984671,-0.325000,0.102317
777.018196,-0.050000,0.103078
777.051720,0.075000,0.089268
777.085244,0.125000,0.113880
777.118768,-0.550000,0.125000
777.152292,0.000000,0.070711
777.185815,0.125000,0.151554
777.219338,-0.200000,0.070711
777.252861,-0.050000,0.219374
777.286383,-0.075000,0.108253
777.319905,-0.075000,0.147373
777.353427,0.200000,0.187083
777.386949,0.300000,0.269258
777.420471,0.050000,0.055902
777.453992,0.250000,0.201556
777.487513,0.125000,0.041458
777.521033,-0.450000,0.160078
777.554554,-0.225000,0.089268
777.588074,-0.075000,0.073951
777.621594,0.050000,0.090139
777.655114,0.050000,0.043301
777.688633,0.350000,0.195256
777.722152,-0.075000,0.041458
777.755671,0.075000,0.041458
777.789190,0.025000,0.258300
777.822708,-0.225000,0.143069
777.856226,0.075000,0.124373
777.889744,0.100000,0.145774
777.923261,0.100000,0.162019
777.956779,-0.150000,0.082916
777.990296,0.050000,0.075000
778.023812,0.125000,0.207289
778.057329,-0.075000,0.124373
778.090845,0.075000,0.089268
778.124361,-0.025000,0.124373
778.157877,0.025000,0.129301
778.191392,0.200000,0.437321
778.224908,0.100000,0.079057
778.258423,0.025000,0.081968
778.291937,-0.225000,0.041458
778.325452,-0.100000,0.106066
778.358966,0.025000,0.054486
778.392480,0.025000,0.163459
778.425993,0.100000,0.061237
778.459507,0.000000,0.127475
778.493020,-0.125000,0.021651
778.526533,-0.175000,0.064952
778.560045,0.175000,0.362931
778.593558,0.100000,0.093541
778.627070,1.150000,0.525000
778.660582,1.950000,0.654313
778.694093,2.350000,0.279508
778.727605,2.975000,0.677657
778.761116,1.475000,0.188331
778.794626,0.350000,0.152069
778.828137,0.050000,0.075000
778.861647,0.050000,0.043301
778.895157,0.200000,0.093541
778.928667,-0.000000,0.136931
778.962176,-0.075000,0.167239
778.995686,0.100000,0.106066
779.029194,0.475000,0.163459
779.062703,0.100000,0.127475
779.096212,0.325000,0.201168
779.129720,0.200000,0.050000
779.163228,-0.175000,0.096014
779.196735,-0.000000,0.106066
779.230243,-0.700000,0.093541
779.263750,0.025000,0.134048
779.297257,-0.025000,0.081968
779.330763,-0.025000,0.041458
779.364269,-0.100000,0.061237
779.397776,0.225000,0.108253
779.431281,0.425000,0.330483
779.464787,0.050000,0.055902
779.498292,0.000000,0.070711
779.531797,0.275000,0.064952
779.565302,-0.125000,0.054486
779.598806,-0.050000,0.090139
779.632311,0.025000,0.129301
779.665814,0.225000,0.021651
779.699318,0.650000,0.294746
779.732822,-0.025000,0.041458
779.766325,0.000000,0.079057
779.799828,0.125000,0.124373
779.833330,0.075000,0.073951
779.866833,-0.300000,0.122474
779.900335,0.075000,0.081968
779.933837,0.025000,0.147373
779.967338,-0.125000,0.021651
780.000840,-0.225000,0.108253
780.034341,-0.075000,0.102317
780.067841,0.275000,0.296595
780.101342,-0.100000,0.035355
780.134842,0.350000,0.219374
780.168342,-0.200000,0.169558
780.201842,0.300000,0.162019
780.235341,0.125000,0.041458
780.268841,0.200000,0.215058
780.302340,-0.075000,0.096014
780.335838,0.200000,0.127475
780.369337,0.200000,0.206155
780.402835,-0.050000,0.114564
780.436333,0.850000,0.328824
780.469830,1.475000,0.427748
780.503328,1.400000,0.289396
780.536825,2.725000,0.663678
780.570322,3.375000,0.717962
780.603818,1.100000,0.392110
780.637315,0.025000,0.151554
780.670811,0.000000,0.061237
780.704306,0.050000,0.025000
780.737802,0.075000,0.041458
780.771297,-0.100000,0.093541
780.804792,-0.025000,0.064952
780.838287,0.300000,0.079057
780.871781,-0.025000,0.102317
780.905276,-0.275000,0.073951
780.938770,-0.325000,0.064952
780.972263,-0.200000,0.070711
781.005757,0.075000,0.096014
781.039250,0.000000,0.061237
781.072743,0.250000,0.108972
781.106235,0.125000,0.194856
781.139728,-0.300000,0.050000
781.173220,0.200000,0.079057
781.206712,0.150000,0.055902
781.240203,0.100000,0.209165
781.273694,-0.075000,0.054486
781.307185,-0.125000,0.119242
781.340676,0.200000,0.154110
781.374167,-0.200000,0.061237
781.407657,0.225000,0.054486
781.441147,0.025000,0.124373
781.474636,0.175000,0.124373
781.508126,-0.100000,0.070711
781.541615,-0.025000,0.178098
781.575104,0.175000,0.213234
781.608593,0.100000,0.061237
781.642081,-0.225000,0.089268
781.675569,-0.100000,0.061237
781.709057,0.200000,0.111803
781.742544,0.000000,0.111803
781.776032,-0.300000,0.086603
781.809519,-0.200000,0.106066
781.843006,0.100000,0.061237
781.876492,0.275000,0.296595
781.909978,0.250000,0.082916
781.943464,0.500000,0.226385
781.976950,0.050000,0.055902
782.010435,0.200000,0.252488
782.043921,-0.125000,0.021651
782.077406,0.025000,0.054486
782.110890,0.175000,0.073951
782.144375,-0.150000,0.082916
782.177859,0.100000,0.070711
782.211343,-0.175000,0.096014
782.244826,0.525000,0.198037
782.278309,1.550000,0.394493
782.311792,1.950000,0.447912
782.345275,4.100000,0.462331
782.378758,2.650000,0.442295
782.412240,0.675000,0.129301
782.445722,0.825000,0.460129
782.479204,0.400000,0.183712
782.512685,-0.325000,0.113880
782.546166,0.075000,0.108253
782.579647,-0.225000,0.134048
782.613128,-0.075000,0.041458
782.646608,0.075000,0.073951
782.680088,0.025000,0.064952
782.713568,0.025000,0.258300
782.747048,-0.025000,0.054486
782.780527,-0.300000,0.111803
782.814006,-0.025000,0.167239
782.847485,-0.250000,0.103078
782.880963,-0.150000,0.025000
782.914442,-0.025000,0.081968
782.947920,-0.300000,0.035355
782.981397,0.050000,0.025000
783.014875,0.100000,0.079057
783.048352,-0.225000,0.054486
783.081829,-0.100000,0.117260
783.115306,0.125000,0.138632
783.148782,-0.175000,0.054486
783.182258,-0.225000,0.096014
783.215734,-0.025000,0.021651
783.249209,-0.425000,0.041458
783.282685,0.125000,0.096014
783.316160,-0.025000,0.089268
783.349635,0.050000,0.114564
783.383109,-0.100000,0.061237
783.416583,-0.150000,0.143614
783.450057,-0.150000,0.055902
783.483531,0.025000,0.113880
783.517004,0.300000,0.176777
783.550477,0.025000,0.178098
783.583950,0.225000,0.096014
783.617423,0.225000,0.096014
783.650895,0.375000,0.216145
783.684367,-0.150000,0.082916
783.717839,-0.725000,0.073951
783.751311,-0.175000,0.073951
783.784782,-0.100000,0.061237
783.818253,-0.200000,0.061237
783.851724,0.025000,0.054486
783.885194,0.325000,0.296595
783.918665,0.200000,0.162019
783.952134,0.125000,0.021651
783.985604,0.050000,0.108972
784.019074,0.700000,0.519615
784.052543,0.475000,0.332368
784.086012,0.425000,0.184983
784.119480,1.275000,0.270127
784.152948,2.900000,0.876784
784.186416,5.925000,0.698548
784.219884,3.025000,0.417395
784.253352,0.825000,0.147373
784.286819,0.575000,0.221853
784.320286,0.350000,0.219374
784.353753,-0.000000,0.234521
784.387219,-0.050000,0.075000
784.420685,0.050000,0.043301
784.454151,0.075000,0.089268
784.487617,0.125000,0.318934
784.521082,0.325000,0.108253
784.554547,0.475000,0.163459
784.588012,0.000000,0.325960
784.621477,0.000000,0.061237
784.654941,0.100000,0.079057
784.688405,0.125000,0.113880
784.721869,0.000000,0.079057
784.755332,-0.100000,0.093541
784.788795,0.175000,0.174553
784.822258,-0.075000,0.096014
784.855721,0.100000,0.079057
784.889183,0.100000,0.180278
784.922646,0.050000,0.103078
784.956107,0.325000,0.255869
784.989569,-0.175000,0.129301
785.023030,-0.125000,0.073951
785.056491,-0.075000,0.129301
785.089952,0.125000,0.198037
785.123413,-0.225000,0.041458
785.156873,-0.300000,0.111803
785.190333,0.200000,0.127475
785.223792,0.150000,0.195256
785.257252,0.075000,0.129301
785.290711,-0.125000,0.041458
785.324170,-0.100000,0.093541
785.357629,-0.225000,0.064952
785.391087,0.075000,0.124373
785.424545,0.050000,0.167705
785.458003,-0.125000,0.089268
785.491460,0.450000,0.341870
785.524918,0.350000,0.147902
785.558375,-0.075000,0.073951
785.591831,0.125000,0.096014
785.625288,0.325000,0.245904
785.658744,0.075000,0.054486
785.692200,0.175000,0.129301
785.725655,-0.050000,0.082916
785.759111,-0.025000,0.064952
785.792566,0.175000,0.235518
785.826021,0.275000,0.155624
785.859475,-0.400000,0.070711
785.892930,0.250000,0.025000
785.926384,1.300000,0.458258
785.959837,0.950000,0.251247
785.993291,1.833333,0.113652
786.026744,3.725000,0.216145
786.060197,4.600000,0.923986
786.093649,2.375000,0.421863
786.127102,0.400000,0.300000
786.160554,0.325000,0.355976
786.194006,0.375000,0.316968
786.227457,-0.125000,0.096014
786.260909,0.150000,0.129904
786.294360,0.100000,0.061237
786.327810,-0.275000,0.108253
786.361261,0.400000,0.262202
786.394711,0.100000,0.269258
786.428161,0.200000,0.237171
786.461611,0.450000,0.075000
786.495060,-0.000000,0.176777
786.528509,-0.125000,0.073951
786.561958,0.025000,0.119242
786.595407,0.100000,0.079057
786.628855,0.150000,0.125000
786.662303,-0.350000,0.108972
786.695751,0.125000,0.081968
786.729198,-0.025000,0.119242
786.762645,0.300000,0.320156
786.796092,-0.175000,0.073951
786.829539,0.100000,0.117260
786.862985,-0.150000,0.188746
786.896431,-0.125000,0.064952
786.929877,0.150000,0.082916
786.963323,0.325000,0.258300
786.996768,0.050000,0.055902
787.030213,-0.225000,0.119242
787.063658,-0.050000,0.235850
787.097102,0.050000,0.134629
787.130547,-0.450000,0.103078
787.163991,-0.200000,0.154110
787.197434,-0.375000,0.129301
787.230878,0.125000,0.054486
787.264321,0.075000,0.096014
787.297764,-0.150000,0.082916
787.331206,0.075000,0.096014
787.364648,0.000000,0.111803
787.398090,0.075000,0.089268
787.431532,0.075000,0.096014
787.464974,0.475000,0.399022
787.498415,-0.375000,0.108253
787.531856,0.250000,0.219374
787.565296,-0.100000,0.215058
787.598737,-0.025000,0.073951
787.632177,0.200000,0.050000
787.665617,-0.175000,0.054486
787.699056,0.325000,0.167239
787.732496,-0.300000,0.150000
787.765935,0.425000,0.265460
787.799373,1.850000,0.601560
787.832812,4.150000,0.686932
787.866250,6.700000,0.702673
787.899688,5.400000,0.699107
787.933126,1.250000,0.328824
787.966563,0.800000,0.254951
788.000000,0.225000,0.181573
788.033437,-0.100000,0.106066
788.066873,-0.175000,0.096014
788.100310,0.075000,0.041458
788.133746,-0.025000,0.073951
788.167181,0.025000,0.151554
788.200617,0.050000,0.143614
788.234052,0.225000,0.221853
788.267487,-0.150000,0.103078
788.300921,0.050000,0.108972
788.334356,0.150000,0.043301
788.367790,0.425000,0.147373
788.401224,0.150000,0.167705
788.434657,-0.200000,0.127475
788.468090,-0.125000,0.134048
788.501523,0.025000,0.102317
788.534956,-0.100000,0.162019
788.568389,0.050000,0.103078
788.601821,-0.025000,0.108253
788.635253,-0.175000,0.064952
788.668684,-0.225000,0.089268
788.702116,-0.050000,0.025000
788.735547,-0.025000,0.155624
788.768977,0.100000,0.169558
788.802408,0.300000,0.141421
788.835838,-0.100000,0.061237
788.869268,0.300000,0.293684
788.902698,-0.000000,0.093541
788.936127,-0.150000,0.055902
788.969556,0.050000,0.090139
789.002985,0.300000,0.329773
789.036414,0.400000,0.293684
789.069842,-0.125000,0.089268
789.103270,0.150000,0.103078
789.136698,0.025000,0.151554
789.170125,0.150000,0.277263
789.203552,0.375000,0.238157
789.236979,0.200000,0.154110
789.270406,-0.200000,0.061237
789.303832,0.050000,0.090139
789.337258,-0.200000,0.127475
789.370684,0.075000,0.201168
789.404110,0.075000,0.188331
789.437535,0.100000,0.061237
789.470960,0.100000,0.093541
789.504385,0.000000,0.154110
789.537809,0.225000,0.216145
789.571233,0.125000,0.155624
789.604657,0.475000,0.326678
789.638081,0.700000,0.259808
789.671504,2.900000,0.093541
789.704927,5.300000,0.829910
789.738350,4.866667,1.070241
789.771772,7.550000,0.548293
789.805195,1.950000,0.503115
789.838617,0.925000,0.210283
789.872038,0.600000,0.382426
789.905460,-0.675000,0.073951
789.938881,0.000000,0.162019
789.972302,-0.200000,0.035355
790.005722,0.275000,0.134048
790.039143,-0.100000,0.145774
790.072563,0.225000,0.147373
790.105982,0.125000,0.064952
790.139402,0.125000,0.096014
790.172821,-0.450000,0.075000
790.206240,0.200000,0.169558
790.239658,0.350000,0.182003
790.273077,0.275000,0.147373
790.306495,-0.200000,0.061237
790.339913,0.150000,0.082916
790.373330,0.100000,0.145774
790.406747,-0.025000,0.064952
790.440164,-0.175000,0.096014
790.473581,0.100000,0.106066
790.506997,-0.100000,0.093541
790.540414,-0.075000,0.073951
790.573829,0.000000,0.035355
790.607245,0.100000,0.176777
790.640660,-0.125000,0.041458
790.674075,0.125000,0.073951
790.707490,-0.100000,0.035355
790.740904,0.175000,0.198037
790.774319,0.050000,0.025000
790.807733,0.475000,0.260708
790.841146,0.500000,0.382426
790.874560,-0.075000,0.151554
790.907973,0.000000,0.086603
790.941385,0.125000,0.143069
790.974798,0.125000,0.073951
791.008210,0.400000,0.169558
791.041622,0.000000,0.176777
791.075034,0.075000,0.021651
791.108445,0.050000,0.160078
791.141856,0.925000,0.601431
791.175267,-0.050000,0.175000
791.208678,0.300000,0.362284
791.242088,0.150000,0.143614
791.275498,0.000000,0.111803
791.308908,0.150000,0.075000
791.342317,0.400000,0.237171
791.375726,-0.025000,0.064952
791.409135,0.000000,0.061237
791.442544,-0.225000,0.138632
791.475952,0.475000,0.235518
791.509360,2.775000,0.270127
791.542768,5.625000,0.719700
791.576176,11.266667,0.644528
791.609583,9.675000,0.531948
791.642990,5.000000,0.605186
791.676396,3.000000,0.501248
791.709803,0.625000,0.522464
791.743209,0.075000,0.174553
791.776615,0.225000,0.240767
791.810020,0.175000,0.129301
791.843425,0.400000,0.280624
791.876830,-0.350000,0.025000
791.910235,0.100000,0.093541
791.943640,-0.025000,0.235518
791.977044,-0.250000,0.055902
792.010448,-0.150000,0.160078
792.043851,0.350000,0.207666
792.077254,-0.200000,0.079057
792.110658,0.125000,0.207289
792.144060,-0.175000,0.134048
792.177463,0.175000,0.124373
792.210865,-0.025000,0.096014
792.244267,-0.000000,0.111803
792.277668,0.025000,0.096014
792.311070,-0.000000,0.117260
792.344471,0.150000,0.114564
792.377872,-0.175000,0.096014
792.411272,-0.000000,0.093541
792.444672,0.250000,0.108972
792.478072,0.125000,0.124373
792.511472,0.150000,0.075000
792.544871,0.500000,0.169558
792.578271,-0.225000,0.163459
792.611669,-0.175000,0.119242
792.645068,0.025000,0.054486
792.678466,-0.150000,0.114564
792.711864,0.125000,0.174553
792.745262,-0.250000,0.082916
792.778659,0.325000,0.515237
792.812056,-0.050000,0.075000
792.845453,0.175000,0.089268
792.878850,0.050000,0.108972
792.912246,0.000000,0.061237
792.945642,0.075000,0.155624
792.979038,0.150000,0.167705
793.012433,0.150000,0.167705
793.045829,0.250000,0.246221
793.079223,-0.225000,0.041458
793.112618,-0.250000,0.043301
793.146012,0.300000,0.122474
793.179406,-0.200000,0.050000
793.212800,-0.050000,0.103078
793.246194,-0.050000,0.043301
793.279587,0.375000,0.184983
793.312980,0.125000,0.119242
793.346373,0.375000,0.341641
793.379765,2.025000,0.274716
793.413157,4.175000,1.177059
793.446549,8.500000,0.223607
793.479940,12.925000,1.415263
793.513332,7.700000,0.385681
793.546723,3.700000,0.875357
793.580113,0.600000,0.196850
793.613504,0.225000,0.355976
793.646894,-0.150000,0.075000
793.680284,0.150000,0.246221
793.713673,0.050000,0.055902
793.747062,-0.100000,0.061237
793.780451,-0.150000,0.055902
793.813840,0.150000,0.055902
793.847228,0.175000,0.021651
793.880617,0.025000,0.073951
793.914004,0.000000,0.079057
793.947392,0.050000,0.055902
793.980779,-0.125000,0.129301
794.014166,-0.375000,0.143069
794.047553,-0.075000,0.041458
794.080940,0.100000,0.079057
794.114326,0.025000,0.081968
794.147712,-0.125000,0.073951
794.181097,0.025000,0.064952
794.214483,0.125000,0.073951
794.247868,0.100000,0.035355
794.281252,0.000000,0.035355
794.314637,-0.075000,0.163459
794.348021,-0.125000,0.054486
794.381405,-0.075000,0.089268
794.414788,-0.025000,0.129301
794.448172,0.175000,0.188331
794.481555,-0.100000,0.093541
794.514938,-0.025000,0.207289
794.548320,-0.025000,0.064952
794.581702,0.150000,0.163936
794.615084,0.250000,0.055902
794.648466,0.125000,0.129301
794.681847,0.350000,0.294746
794.715228,-0.200000,0.329773
794.748609,0.050000,0.261008
794.781990,-0.800000,0.106066
794.815370,1.425000,0.663678
794.848750,0.075000,0.178098
794.882129,-0.475000,0.151554
794.915509,0.075000,0.184983
794.948888,-0.400000,0.136931
794.982267,0.275000,0.296595
795.015645,-0.225000,0.021651
795.049023,0.275000,0.041458
795.082401,-0.150000,0.090139
795.115779,-0.150000,0.090139
795.149156,-0.000000,0.093541
795.182534,0.475000,0.300780
795.215910,0.125000,0.102317
795.249287,1.950000,0.334477
795.282663,4.400000,0.918559
795.316039,13.300000,0.868188
795.349415,18.925000,1.274939
795.382790,14.075000,0.588828
795.416165,6.875000,1.190785
795.449540,2.025000,0.739404
795.482915,1.200000,0.619476
795.516289,0.300000,0.093541
795.549663,0.200000,0.203101
795.583037,-0.050000,0.219374
795.616410,0.150000,0.055902
795.649783,-0.450000,0.055902
795.683156,0.025000,0.102317
795.716529,0.450000,0.134629
795.749901,0.625000,0.418890
795.783273,-0.100000,0.154110
795.816645,-0.350000,0.055902
795.850016,0.100000,0.162019
795.883387,0.200000,0.035355
795.916758,-0.075000,0.119242
795.950129,-0.050000,0.025000
795.983499,-0.075000,0.155624
796.016869,-0.325000,0.054486
796.050239,-0.450000,0.134629
796.083608,0.300000,0.196850
796.116977,-0.100000,0.106066
796.150346,-0.300000,0.176777
796.183714,0.150000,0.134629
796.217083,0.100000,0.093541
796.250451,0.575000,0.464186
796.283818,0.175000,0.155624
796.317186,0.775000,0.310996
796.350553,-0.025000,0.064952
796.383920,-0.050000,0.147902
796.417286,0.275000,0.155624
796.450653,-0.025000,0.096014
796.484019,0.775000,0.443530
796.517384,0.025000,0.096014
796.550750,0.025000,0.096014
796.584115,0.275000,0.096014
796.617480,0.150000,0.134629
796.650844,0.675000,0.270127
796.684209,0.025000,0.163459
796.717573,-0.225000,0.021651
796.750936,0.125000,0.147373
796.784300,0.025000,0.073951
796.817663,-0.100000,0.093541
796.851026,0.075000,0.124373
796.884388,-0.400000,0.035355
796.917751,0.025000,0.102317
796.951113,0.000000,0.000000
796.984474,0.025000,0.054486
797.017836,0.200000,0.122474
797.051197,0.025000,0.129301
797.084558,-0.350000,0.090139
797.117918,0.300000,0.127475
797.151279,1.050000,0.396074
797.184639,4.125000,0.313000
797.217998,11.866667,1.127682
797.251358,17.925000,1.673087
797.284717,11.425000,0.730047
797.318076,6.600000,0.475657
797.351434,2.000000,0.711512
797.384793,0.200000,0.127475
797.418151,0.200000,0.061237
797.451508,0.675000,0.472196
797.484866,-0.050000,0.082916
797.518223,0.275000,0.041458
797.551580,-0.125000,0.138632
797.584936,0.450000,0.328824
797.618292,-0.075000,0.113880
797.651648,0.250000,0.167705
797.685004,-0.125000,0.073951
797.718360,0.075000,0.073951
797.751715,0.175000,0.138632
797.785069,0.400000,0.353553
797.818424,-0.050000,0.129904
797.851778,0.125000,0.265460
797.885132,-0.450000,0.090139
797.918486,0.025000,0.089268
797.951839,0.175000,0.178098
797.985192,0.475000,0.389511
798.018545,0.125000,0.054486
798.051898,0.375000,0.119242
798.085250,-0.100000,0.127475
798.118602,-0.100000,0.162019
798.151954,-0.050000,0.134629
798.185305,0.325000,0.102317
798.218656,0.175000,0.096014
798.252007,0.325000,0.089268
798.285357,0.400000,0.122474
798.318708,-0.200000,0.093541
798.352057,0.200000,0.061237
798.385407,0.425000,0.108253
798.418756,0.000000,0.117260
798.452106,0.050000,0.103078
798.485454,0.150000,0.114564
798.518803,0.375000,0.167239
798.552151,-0.025000,0.073951
798.585499,0.125000,0.073951
798.618847,-0.250000,0.055902
798.652194,0.250000,0.082916
798.685541,0.450000,0.090139
798.718888,0.025000,0.064952
798.752234,-0.025000,0.089268
798.785580,0.350000,0.043301
798.818926,-0.100000,0.117260
798.852272,-0.175000,0.124373
798.885617,-0.475000,0.108253
798.918962,0.300000,0.287228
798.952307,0.150000,0.288314
798.985651,0.725000,0.089268
799.018996,0.600000,0.259808
799.052339,1.125000,0.450521
799.085683,6.066667,0.496655
799.119026,18.333333,1.196523
799.152369,21.266667,0.954812
799.185712,16.575000,1.167463
799.219054,6.025000,0.395877
799.252397,2.625000,0.373120
799.285738,1.725000,0.272431
799.319080,0.100000,0.093541
799.352421,0.150000,0.055902
799.385762,0.175000,0.096014
799.419103,0.475000,0.238157
799.452443,-0.025000,0.089268
799.485783,0.300000,0.154110
799.519123,0.075000,0.159589
799.552463,-0.175000,0.096014
799.585802,0.250000,0.219374
799.619141,0.200000,0.203101
799.652480,-0.125000,0.194856
799.685818,-0.125000,0.096014
799.719156,0.150000,0.114564
799.752494,0.375000,0.089268
799.785831,0.250000,0.075000
799.819169,-0.025000,0.134048
799.852506,0.025000,0.167239
799.885842,-0.300000,0.093541
799.919179,-0.225000,0.064952
799.952515,0.150000,0.147902
799.985850,0.050000,0.147902
800.019186,0.100000,0.262202
800.052521,0.200000,0.289396
800.085856,-0.050000,0.134629
800.119191,0.175000,0.073951
800.152525,-0.050000,0.055902
800.185859,0.250000,0.175000
800.219193,0.025000,0.108253
800.252526,0.125000,0.102317
800.285859,0.000000,0.122474
800.319192,-0.025000,0.081968
800.352525,0.125000,0.170935
800.385857,-0.200000,0.079057
800.419189,0.400000,0.150000
800.452521,0.075000,0.073951
800.485852,0.200000,0.106066
800.519183,-0.325000,0.073951
800.552514,0.025000,0.230149
800.585844,-1.000000,0.127475
800.619175,0.325000,0.219018
800.652505,0.275000,0.184983
800.685834,0.675000,0.163459
800.719164,0.225000,0.089268
800.752493,0.175000,0.041458
800.785821,0.425000,0.081968
800.819150,0.125000,0.096014
800.852478,0.075000,0.163459
800.885806,0.375000,0.113880
800.919134,0.575000,0.155624
800.952461,1.625000,0.207289
800.985788,8.825000,1.041258
801.019115,34.000000,0.601041
801.052441,55.450000,1.005920
801.085767,51.200000,0.868188
801.119093,20.675000,0.970422
801.152419,5.850000,0.559576
801.185744,1.750000,0.235850
801.219069,-0.150000,0.195256
801.252394,0.075000,0.073951
801.285718,-0.075000,0.119242
801.319042,0.350000,0.230489
801.352366,-0.200000,0.154110
801.385690,0.025000,0.041458
801.419013,-0.575000,0.134048
801.452336,-0.350000,0.160078
801.485658,0.125000,0.188331
801.518981,0.250000,0.192029
801.552303,-0.200000,0.111803
801.585625,0.150000,0.175000
801.618946,-0.175000,0.138632
801.652267,-0.050000,0.147902
801.685588,0.200000,0.111803
801.718909,-0.025000,0.113880
801.752229,0.425000,0.194856
801.785549,0.150000,0.251247
801.818869,0.450000,0.216506
801.852188,-0.200000,0.111803
801.885507,0.450000,0.103078
801.918826,0.375000,0.194856
801.952145,-0.175000,0.064952
801.985463,-0.150000,0.188746
802.018781,0.100000,0.169558
802.052099,0.150000,0.108972
802.085416,0.650000,0.419076
802.118733,0.125000,0.224653
802.152050,0.350000,0.082916
802.185366,0.075000,0.138632
802.218683,0.725000,0.383039
802.251999,0.325000,0.170935
802.285314,-0.350000,0.055902
802.318630,0.125000,0.089268
802.351945,-0.100000,0.100000
802.385259,0.450000,0.296859
802.418574,-0.050000,0.114564
802.451888,0.225000,0.207289
802.485202,0.050000,0.143614
802.518515,0.225000,0.314990
802.551829,0.000000,0.162019
802.585142,0.150000,0.075000
802.618454,0.400000,0.231840
802.651767,0.175000,0.174553
802.685079,-0.575000,0.054486
802.718391,0.300000,0.252488
802.751702,-0.150000,0.055902
802.785013,0.025000,0.041458
802.818324,0.275000,0.143069
802.851635,0.900000,0.257391
802.884945,2.875000,0.324760
802.918255,20.050000,0.828025
802.951565,57.775000,3.063367
802.984874,81.550000,3.215879
803.018184,38.433333,0.838401
803.051492,13.000000,1.102837
803.084801,2.925000,0.860505
803.118109,0.525000,0.151554
803.151417,0.125000,0.260708
803.184725,0.200000,0.035355
803.218032,0.350000,0.114564
803.251339,0.700000,0.276134
803.284646,0.025000,0.134048
803.317953,-0.075000,0.021651
803.351259,-0.125000,0.151554
803.384565,-0.350000,0.090139
803.417870,-0.075000,0.021651
803.451176,0.025000,0.151554
803.484481,0.275000,0.288043
803.517786,0.100000,0.035355
803.551090,0.075000,0.113880
803.584394,0.200000,0.150000
803.617698,-0.225000,0.041458
803.651002,0.450000,0.175000
803.684305,-0.275000,0.041458
803.717608,-0.150000,0.108972
803.750910,-0.200000,0.106066
803.784213,0.125000,0.163459
803.817515,0.250000,0.055902
803.850817,-0.100000,0.050000
803.884118,0.150000,0.103078
803.917419,0.225000,0.102317
803.950720,0.225000,0.147373
803.984021,0.575000,0.167239
804.017321,0.200000,0.093541
804.050621,0.150000,0.082916
804.083921,0.075000,0.184983
804.117220,0.000000,0.106066
804.150519,-0.175000,0.041458
804.183818,0.175000,0.089268
804.217117,-0.550000,0.055902
804.250415,0.225000,0.267804
804.283713,0.400000,0.136931
804.317011,0.250000,0.195256
804.350308,0.025000,0.129301
804.383605,0.450000,0.394493
804.416902,0.050000,0.090139
804.450198,0.150000,0.055902
804.483494,0.575000,0.383039
804.516790,0.225000,0.064952
804.550086,-0.100000,0.209165
804.583381,-0.250000,0.108972
804.616676,0.425000,0.163459
804.649971,0.675000,0.354216
804.683265,-0.100000,0.079057
804.716559,-0.475000,0.108253
804.749853,0.175000,0.124373
804.783146,1.075000,0.625874
804.816440,3.900000,0.215058
804.849732,27.725000,2.354616
804.883025,76.566667,2.337823
804.916317,104.600000,2.316517
804.949609,51.466667,1.770711
804.982901,12.350000,1.299279
805.016192,3.600000,0.515994
805.049484,0.950000,0.317214
805.082774,-0.475000,0.147373
805.116065,0.200000,0.093541
805.149355,0.025000,0.113880
805.182645,0.850000,0.301040
805.215935,-0.025000,0.113880
805.249224,0.200000,0.162019
805.282513,-0.150000,0.125000
805.315802,0.325000,0.089268
805.349090,0.275000,0.163459
805.382378,0.550000,0.288314
805.415666,0.400000,0.237171
805.448954,0.775000,0.409840
805.482241,-0.100000,0.061237
805.515528,-0.100000,0.035355
805.548815,0.450000,0.167705
805.582101,0.225000,0.064952
805.615387,0.400000,0.215058
805.648673,0.425000,0.265460
805.681958,0.200000,0.183712
805.715243,0.600000,0.242384
805.748528,0.350000,0.238485
805.781813,-0.175000,0.155624
805.815097,0.650000,0.025000
805.848381,0.650000,0.381608
805.881665,-0.375000,0.124373
805.914948,0.050000,0.114564
805.948231,-0.175000,0.096014
805.981514,-0.100000,0.035355
806.014796,0.050000,0.082916
806.048079,0.500000,0.244949
806.081360,0.175000,0.167239
806.114642,0.125000,0.124373
806.147923,-0.025000,0.143069
806.181204,0.050000,0.235850
806.214485,-0.225000,0.119242
806.247765,0.225000,0.260708
806.281046,0.150000,0.201556
806.314325,0.525000,0.588828
806.347605,0.200000,0.127475
806.380884,-0.150000,0.292617
806.414163,0.175000,0.119242
806.447441,0.500000,0.229129
806.480720,0.425000,0.290205
806.513998,0.025000,0.129301
806.547275,0.600000,0.358818
806.580553,0.675000,0.364649
806.613830,0.700000,0.340955
806.647107,0.200000,0.237171
806.680383,0.525000,0.170935
806.713659,1.225000,0.143069
806.746935,5.525000,0.531948
806.780211,29.633333,1.328690
806.813486,125.850000,3.160795
806.846761,208.875000,2.957485
806.880036,138.850000,5.738630
806.913310,42.000000,1.394184
806.946584,4.350000,0.313249
806.979858,0.975000,0.188331
807.013132,0.350000,0.371652
807.046405,0.275000,0.113880
807.079678,0.225000,0.064952
807.112951,0.275000,0.198037
807.146223,0.050000,0.213600
807.179495,-0.025000,0.184983
807.212767,-0.550000,0.283945
807.246038,0.050000,0.167705
807.279309,-0.050000,0.055902
807.312580,-0.025000,0.041458
807.345850,-0.200000,0.145774
807.379121,0.200000,0.333542
807.412390,0.000000,0.093541
807.445660,0.275000,0.184983
807.478929,0.650000,0.114564
807.512198,0.750000,0.536773
807.545467,-0.175000,0.041458
807.578735,-0.075000,0.181573
807.612004,-0.600000,0.269258
807.645271,0.275000,0.138632
807.678539,-0.100000,0.127475
807.711806,0.400000,0.061237
807.745073,-0.050000,0.147902
807.778340,0.400000,0.257391
807.811606,0.125000,0.096014
807.844872,0.625000,0.308980
807.878138,0.000000,0.127475
807.911403,0.100000,0.165831
807.944668,0.150000,0.055902
807.977933,0.075000,0.181573
808.011197,0.475000,0.155624
808.044462,0.125000,0.124373
808.077725,0.075000,0.245904
808.110989,0.475000,0.232849
808.144252,0.575000,0.371441
808.177515,0.625000,0.374792
808.210778,0.325000,0.210283
808.244040,0.675000,0.147373
808.277302,-0.600000,0.035355
808.310564,-0.000000,0.093541
808.343826,0.675000,0.113880
808.377087,0.025000,0.174553
808.410348,0.425000,0.167239
808.443608,0.200000,0.162019
808.476869,0.650000,0.357946
808.510129,0.125000,0.240767
808.543388,0.500000,0.237171
808.576648,0.525000,0.191621
808.609907,0.500000,0.231840
808.643165,0.500000,0.176777
808.676424,2.625000,0.414390
808.709682,12.150000,0.776611
808.742940,94.000000,4.614786
808.776197,316.900000,1.535008
808.809455,334.100000,0.863858
808.842712,129.800000,4.756574
808.875968,22.625000,1.999492
808.909225,3.025000,0.480072
808.942481,0.300000,0.320156
808.975736,-0.250000,0.075000
809.008992,0.075000,0.113880
809.042247,0.350000,0.143614
809.075502,0.650000,0.309233
809.108756,-0.675000,0.204252
809.142011,0.625000,0.296595
809.175265,0.100000,0.273861
809.208518,0.350000,0.235850
809.241772,0.000000,0.254951
809.275025,0.025000,0.054486
809.308277,0.750000,0.403887
809.341530,0.575000,0.343466
809.374782,1.250000,0.347311
809.408034,0.525000,0.207289
809.441285,0.200000,0.511126
809.474536,0.050000,0.317214
809.507787,-0.200000,0.247487
809.541038,0.925000,0.389511
809.574288,0.050000,0.286138
809.607538,-0.000000,0.215058
809.640788,0.100000,0.340955
809.674037,0.800000,0.242384
809.707286,-0.050000,0.182003
809.740535,0.350000,0.309233
809.773783,0.675000,0.296595
809.807032,0.850000,0.256174
809.840279,-0.550000,0.082916
809.873527,-0.125000,0.221853
809.906774,0.100000,0.127475
809.940021,0.175000,0.290205
809.973268,0.125000,0.167239
810.006514,-0.225000,0.041458
810.039760,0.800000,0.302076
810.073006,0.325000,0.302851
810.106251,0.425000,0.245904
810.139497,0.775000,0.143069
810.172741,0.350000,0.090139
810.205986,0.350000,0.201556
810.239230,-0.350000,0.160078
810.272474,0.450000,0.375000
810.305718,0.750000,0.270416
810.338961,1.225000,0.473517
810.372204,0.075000,0.292350
810.405447,0.750000,0.227761
810.438689,0.500000,0.215058
810.471931,0.200000,0.333542
810.505173,0.800000,0.552268
810.538414,1.000000,0.229129
810.571656,0.425000,0.348882
810.604897,1.300000,0.478278
810.638137,4.500000,0.127475
810.671377,32.325000,0.711842
810.704617,238.200000,5.098284
810.737857,666.525000,3.189117
810.771096,641.650000,12.683528
810.804335,219.400000,6.688890
810.837574,32.166667,1.905693
810.870813,4.375000,0.348882
810.904051,1.350000,0.391312
810.937288,1.000000,0.276134
810.970526,0.166667,0.108012
811.003763,-0.275000,0.163459
811.037000,0.425000,0.489100
811.070237,0.350000,0.216506
811.103473,-0.475000,0.124373
811.136709,-0.125000,0.184983
811.169945,-0.275000,0.167239
811.203180,-0.050000,0.075000
811.236415,0.175000,0.089268
811.269650,-0.000000,0.266927
811.302884,-0.000000,0.237171
811.336119,0.600000,0.498748
811.369352,-0.100000,0.176777
811.402586,0.075000,0.230149
811.435819,0.300000,0.919918
811.469052,0.350000,0.882114
811.502285,1.050000,0.862047
811.535517,-3.433333,0.287953
811.568749,0.400000,0.501248
811.601981,0.275000,0.545865
811.635212,0.300000,0.173205
811.668443,0.225000,0.240767
811.701674,0.650000,0.160078
811.734905,1.350000,0.419076
811.768135,0.925000,0.509135
811.801365,0.500000,0.158114
811.834594,-0.025000,0.167239
811.867824,0.000000,0.223607
811.901053,0.275000,0.230149
811.934281,-0.050000,0.481534
811.967510,-0.125000,0.155624
812.000738,0.075000,0.194856
812.033965,0.600000,0.458258
812.067193,-0.100000,0.190394
812.100420,-0.250000,0.216506
812.133647,0.175000,0.270127
812.166873,-0.850000,0.332603
812.200099,0.225000,0.096014
812.233325,0.200000,0.196850
812.266551,0.150000,0.419076
812.299776,0.575000,0.276981
812.333001,0.600000,0.136931
812.366226,-0.075000,0.096014
812.399450,-0.125000,0.178098
812.432674,0.475000,0.248433
812.465898,-0.450000,0.043301
812.499121,0.275000,0.124373
812.532345,0.200000,0.223607
812.565567,0.725000,0.188331
812.598790,1.450000,0.500625
812.632012,7.150000,0.535607
812.665234,73.325000,2.237570
812.698456,268.800000,2.147382
812.731677,334.675000,7.470473
812.764898,121.375000,6.322023
812.798119,17.600000,1.006852
812.831339,2.125000,0.300780
812.864559,0.475000,0.184983
812.897779,0.700000,0.351781
812.930998,0.525000,0.296595
812.964217,0.275000,0.330483
812.997436,-0.150000,0.075000
813.030655,-0.075000,0.207289
813.063873,-0.100000,0.203101
813.097091,0.175000,0.143069
813.130308,-0.600000,0.061237
813.163526,0.075000,0.096014
813.196743,0.100000,0.220794
813.229959,0.150000,0.082916
813.263176,0.025000,0.124373
813.296392,0.025000,0.163459
813.329607,0.100000,0.150000
813.362823,0.275000,0.167239
813.396038,-0.200000,0.035355
813.429253,-0.125000,0.096014
813.462467,0.650000,0.606733
813.495682,-0.050000,0.075000
813.528895,0.125000,0.224653
813.562109,0.025000,0.089268
813.595322,0.200000,0.127475
813.628535,-0.000000,0.136931
813.661748,0.025000,0.081968
813.694960,-0.100000,0.061237
813.728172,0.075000,0.124373
813.761384,-0.175000,0.081968
813.794596,0.050000,0.349106
813.827807,-0.275000,0.230149
813.861017,-0.275000,0.124373
813.894228,0.075000,0.108253
813.927438,0.675000,0.381404
813.960648,0.025000,0.124373
813.993858,0.050000,0.134629
814.027067,0.050000,0.090139
814.060276,-0.125000,0.089268
814.093485,-0.150000,0.025000
814.126693,0.000000,0.183712
814.159901,-0.175000,0.184983
814.193109,-0.500000,0.000000
814.226316,0.275000,0.108253
814.259523,0.300000,0.187083
814.292730,0.725000,0.243349
814.325936,0.100000,0.093541
814.359143,0.275000,0.198037
814.392348,0.050000,0.114564
814.425554,0.175000,0.240767
814.458759,0.175000,0.221853
814.491964,0.175000,0.332368
814.525169,-0.050000,0.055902
814.558373,-0.175000,0.181573
814.591577,0.075000,0.213234
814.624781,0.050000,0.090139
814.657984,0.750000,0.309233
