#{
#    "background_file": "Backgrounds\\\\bg_787.999nm_16bin_197st_244en_10.0s_110g_4x_1_seq.txt",
#    "ccd_image_settings": [
#        1,
#        16,
#        1,
#        1600,
#        197,
#        244
#    ],
#    "ccd_temperature": "-88",
#    "cdRatios": {
#        "mean": 0.9239270773525816,
#        "std": 0.007969928496011391
#    },
#    "center_lambda": 788.0,
#    "comments": "",
#    "dark_region": 0.2906444281140617,
#    "date": "11/17/19 14:38:46PM",
#    "eff_field": 1.5,
#    "exposure": 10.0,
#    "fel_lambda": "15.0",
#    "fel_pol": "H",
#    "fel_pulses": 40,
#    "fel_pyro_cal": "0.017",
#    "fel_reprate": "1.07",
#    "fel_transmission": "1.0",
#    "fel_transmission_fits": {
#        "A": 1.0,
#        "C": 0.0,
#        "Mu": 0.0
#    },
#    "fieldInt": {
#        "mean": 9266.731704545455,
#        "std": 456.50436362856897
#    },
#    "fieldStrength": {
#        "mean": 44.15386363636363,
#        "std": 1.099547800962116
#    },
#    "fpTime": {
#        "mean": 1.1922531107494498,
#        "std": 0.08123808065291545
#    },
#    "gain": 110,
#    "grating": 3,
#    "images_in_sequence": [
#        "hsg_SpotD_crystal16_an45_HAna177.txt",
#        "hsg_SpotD_crystal16_an45_HAna178.txt",
#        "hsg_SpotD_crystal16_an45_HAna179.txt",
#        "hsg_SpotD_crystal16_an45_HAna180.txt"
#    ],
#    "nir_lambda": "820.9918",
#    "nir_pola": "-45",
#    "nir_polg": "0",
#    "nir_power": "100.0",
#    "pulseEnergies": {
#        "mean": 2.012477272727273,
#        "std": 0.1143877675400481
#    },
#    "pyroVoltage": {
#        "mean": 0.12820600068730595,
#        "std": 0.00827996942808963
#    },
#    "rotatorAngle": 247.4999963378817,
#    "sample_Temp": "58",
#    "sample_name": "L001218.C3",
#    "series": "SpotD_16_-45",
#    "slits": "60",
#    "spec_step": "",
#    "window_trans": 0.92,
#    "y_max": 2,
#    "y_min": 1
#}
#
#
#
#
#
#
#
#
#
#
#
#
#
#
#
#
#
#
#
#
#
#
#
#
#
#
Wavelength,Signal,error
nm,arb. u.,arb.u.
Wavelength,SpotD_16_-45,error
761.200217,0.100000,0.117260
761.233859,0.050000,0.075000
761.267500,0.025000,0.081968
761.301141,-0.100000,0.061237
761.334781,0.150000,0.055902
761.368422,-0.350000,0.103078
761.402062,0.175000,0.155624
761.435702,-0.125000,0.041458
761.469342,0.350000,0.265754
761.502981,-0.050000,0.075000
761.536620,0.075000,0.021651
761.570259,-0.025000,0.064952
761.603898,-0.075000,0.073951
761.637537,-0.150000,0.114564
761.671175,0.150000,0.248747
761.704813,-0.000000,0.086603
761.738451,0.175000,0.129301
761.772088,0.325000,0.281458
761.805726,-0.225000,0.143069
761.839363,0.075000,0.041458
761.873000,0.000000,0.176777
761.906636,0.225000,0.235518
761.940273,0.050000,0.103078
761.973909,0.150000,0.090139
762.007545,0.175000,0.134048
762.041180,-0.250000,0.025000
762.074816,-0.050000,0.055902
762.108451,0.200000,0.122474
762.142086,0.125000,0.089268
762.175720,0.200000,0.127475
762.209355,0.125000,0.073951
762.242989,0.575000,0.341641
762.276623,0.000000,0.050000
762.310257,0.075000,0.181573
762.343890,-0.375000,0.041458
762.377524,-0.075000,0.129301
762.411157,0.250000,0.103078
762.444789,0.325000,0.167239
762.478422,0.100000,0.035355
762.512054,0.200000,0.127475
762.545686,0.100000,0.154110
762.579318,0.525000,0.368061
762.612950,0.075000,0.021651
762.646581,0.200000,0.187083
762.680212,0.225000,0.138632
762.713843,0.150000,0.225000
762.747474,0.375000,0.096014
762.781104,0.075000,0.108253
762.814734,-0.375000,0.108253
762.848364,-0.350000,0.055902
762.881994,-0.000000,0.136931
762.915623,-0.025000,0.054486
762.949252,-0.075000,0.064952
762.982881,0.125000,0.138632
763.016510,0.375000,0.219018
763.050139,0.075000,0.270127
763.083767,-0.025000,0.054486
763.117395,0.150000,0.043301
763.151023,0.250000,0.192029
763.184650,0.100000,0.079057
763.218277,-0.275000,0.113880
763.251904,-0.100000,0.122474
763.285531,0.300000,0.231840
763.319158,0.550000,0.167705
763.352784,0.250000,0.286138
763.386410,-0.000000,0.180278
763.420036,0.075000,0.316968
763.453661,0.700000,0.610328
763.487287,0.025000,0.243349
763.520912,-0.825000,0.201168
763.554537,0.375000,0.113880
763.588161,-0.175000,0.096014
763.621786,0.200000,0.200000
763.655410,0.050000,0.055902
763.689034,-0.225000,0.041458
763.722657,0.050000,0.192029
763.756281,0.325000,0.184983
763.789904,-0.125000,0.096014
763.823527,0.150000,0.425000
763.857150,-0.025000,0.054486
763.890772,0.075000,0.188331
763.924394,0.075000,0.073951
763.958016,0.250000,0.103078
763.991638,0.125000,0.119242
764.025260,0.150000,0.055902
764.058881,0.325000,0.221853
764.092502,-0.250000,0.055902
764.126123,0.450000,0.055902
764.159743,-0.125000,0.096014
764.193363,-0.125000,0.064952
764.226983,0.050000,0.103078
764.260603,0.175000,0.102317
764.294223,-0.100000,0.035355
764.327842,0.500000,0.127475
764.361461,0.000000,0.061237
764.395080,0.250000,0.134629
764.428699,-0.025000,0.064952
764.462317,0.500000,0.412311
764.495935,0.250000,0.225000
764.529553,0.275000,0.188331
764.563170,0.225000,0.096014
764.596788,0.375000,0.216145
764.630405,-0.075000,0.073951
764.664022,-0.025000,0.089268
764.697638,0.225000,0.073951
764.731255,0.075000,0.064952
764.764871,0.175000,0.188331
764.798487,-0.025000,0.184983
764.832103,0.075000,0.178098
764.865718,0.075000,0.054486
764.899333,-0.050000,0.075000
764.932948,-0.125000,0.054486
764.966563,-0.075000,0.064952
765.000177,0.100000,0.145774
765.033792,-0.150000,0.055902
765.067406,0.175000,0.163459
765.101019,0.000000,0.035355
765.134633,-0.050000,0.195256
765.168246,0.175000,0.147373
765.201859,0.025000,0.054486
765.235472,0.075000,0.096014
765.269084,0.300000,0.122474
765.302697,-0.150000,0.143614
765.336309,-0.050000,0.163936
765.369920,-0.100000,0.079057
765.403532,-0.075000,0.041458
765.437143,-0.025000,0.108253
765.470754,0.200000,0.061237
765.504365,0.150000,0.103078
765.537976,0.300000,0.231840
765.571586,-0.150000,0.075000
765.605196,-0.250000,0.055902
765.638806,0.300000,0.079057
765.672416,0.075000,0.178098
765.706025,0.050000,0.075000
765.739634,0.000000,0.035355
765.773243,0.275000,0.143069
765.806851,0.100000,0.093541
765.840460,0.050000,0.090139
765.874068,-0.100000,0.079057
765.907676,-0.200000,0.035355
765.941284,0.025000,0.064952
765.974891,0.050000,0.055902
766.008498,0.375000,0.238157
766.042105,0.175000,0.073951
766.075712,0.425000,0.489100
766.109318,0.325000,0.411362
766.142924,0.300000,0.257391
766.176530,0.175000,0.232849
766.210136,0.300000,0.385681
766.243741,0.000000,0.035355
766.277347,-0.000000,0.203101
766.310951,0.150000,0.248747
766.344556,0.225000,0.102317
766.378161,0.300000,0.106066
766.411765,-0.125000,0.096014
766.445369,-0.250000,0.025000
766.478973,-0.100000,0.035355
766.512576,0.125000,0.113880
766.546179,-0.075000,0.134048
766.579782,-0.050000,0.055902
766.613385,0.050000,0.090139
766.646988,-0.250000,0.055902
766.680590,0.075000,0.021651
766.714192,-0.025000,0.073951
766.747794,-0.025000,0.224653
766.781395,0.175000,0.167239
766.814996,-0.325000,0.113880
766.848597,-0.100000,0.086603
766.882198,0.200000,0.127475
766.915799,0.225000,0.170935
766.949399,0.400000,0.206155
766.982999,0.325000,0.147373
767.016599,-0.175000,0.073951
767.050198,0.275000,0.108253
767.083798,0.150000,0.025000
767.117397,0.050000,0.108972
767.150996,-0.150000,0.055902
767.184594,0.075000,0.272431
767.218193,-0.025000,0.073951
767.251791,0.050000,0.248747
767.285389,0.150000,0.192029
767.318986,0.075000,0.155624
767.352583,0.125000,0.113880
767.386181,0.400000,0.226385
767.419777,-0.250000,0.055902
767.453374,0.225000,0.054486
767.486970,-0.400000,0.061237
767.520567,0.100000,0.079057
767.554162,-0.150000,0.103078
767.587758,0.175000,0.102317
767.621353,0.400000,0.176777
767.654949,-0.075000,0.096014
767.688543,0.375000,0.054486
767.722138,0.125000,0.163459
767.755732,0.200000,0.117260
767.789327,-0.200000,0.061237
767.822921,-0.375000,0.021651
767.856514,0.175000,0.300780
767.890108,0.450000,0.275000
767.923701,1.275000,0.491649
767.957294,1.250000,0.313249
767.990886,0.825000,0.357727
768.024479,0.250000,0.292617
768.058071,0.100000,0.035355
768.091663,-0.200000,0.070711
768.125255,0.250000,0.152069
768.158846,0.050000,0.090139
768.192437,-0.075000,0.181573
768.226028,0.200000,0.150000
768.259619,-0.025000,0.073951
768.293209,0.000000,0.035355
768.326799,1.100000,0.604152
768.360389,-0.100000,0.093541
768.393979,0.075000,0.108253
768.427568,-0.150000,0.103078
768.461158,-0.025000,0.096014
768.494747,-0.025000,0.108253
768.528335,-0.075000,0.073951
768.561924,0.500000,0.266927
768.595512,-0.075000,0.089268
768.629100,0.175000,0.073951
768.662688,-0.025000,0.064952
768.696275,-0.275000,0.041458
768.729862,0.025000,0.167239
768.763449,0.200000,0.111803
768.797036,-0.125000,0.073951
768.830623,0.475000,0.279229
768.864209,0.575000,0.302851
768.897795,0.225000,0.089268
768.931381,0.050000,0.134629
768.964966,-0.000000,0.176777
768.998551,1.075000,0.677657
769.032136,-0.000000,0.093541
769.065721,-0.025000,0.041458
769.099305,-0.175000,0.064952
769.132890,-0.175000,0.054486
769.166474,0.200000,0.086603
769.200057,-0.075000,0.102317
769.233641,0.125000,0.096014
769.267224,0.225000,0.096014
769.300807,-0.475000,0.064952
769.334390,0.150000,0.246221
769.367972,0.175000,0.041458
769.401555,-0.125000,0.064952
769.435137,-0.300000,0.145774
769.468718,-0.100000,0.061237
769.502300,0.100000,0.035355
769.535881,0.125000,0.138632
769.569462,-0.425000,0.054486
769.603043,-0.125000,0.041458
769.636623,0.075000,0.064952
769.670204,0.650000,0.143614
769.703784,0.250000,0.090139
769.737364,0.725000,0.276981
769.770943,0.300000,0.190394
769.804522,-0.075000,0.124373
769.838101,0.200000,0.226385
769.871680,-0.050000,0.082916
769.905259,-0.175000,0.143069
769.938837,0.075000,0.134048
769.972415,-0.175000,0.041458
770.005993,0.025000,0.064952
770.039570,0.325000,0.191621
770.073147,0.075000,0.129301
770.106724,-0.025000,0.054486
770.140301,0.450000,0.055902
770.173878,0.475000,0.255869
770.207454,-0.150000,0.025000
770.241030,0.225000,0.207289
770.274606,-0.025000,0.054486
770.308181,0.125000,0.064952
770.341757,0.375000,0.194856
770.375332,0.200000,0.093541
770.408906,0.075000,0.124373
770.442481,-0.250000,0.055902
770.476055,0.125000,0.240767
770.509629,0.050000,0.082916
770.543203,-0.025000,0.073951
770.576776,0.100000,0.093541
770.610350,0.175000,0.064952
770.643923,0.075000,0.073951
770.677495,0.000000,0.050000
770.711068,0.350000,0.219374
770.744640,0.025000,0.041458
770.778212,0.100000,0.150000
770.811784,0.225000,0.073951
770.845356,-0.125000,0.129301
770.878927,0.250000,0.025000
770.912498,0.325000,0.147373
770.946069,0.125000,0.255869
770.979639,-0.075000,0.138632
771.013209,0.225000,0.096014
771.046779,-0.250000,0.152069
771.080349,-0.175000,0.054486
771.113919,-0.050000,0.075000
771.147488,0.150000,0.043301
771.181057,0.200000,0.162019
771.214626,-0.150000,0.082916
771.248194,0.075000,0.096014
771.281762,0.000000,0.293684
771.315330,0.400000,0.154110
771.348898,0.250000,0.103078
771.382465,-0.175000,0.073951
771.416033,0.425000,0.240767
771.449600,0.575000,0.240767
771.483166,1.075000,0.379761
771.516733,1.250000,0.114564
771.550299,0.500000,0.318198
771.583865,0.350000,0.251247
771.617431,0.150000,0.160078
771.650996,0.175000,0.021651
771.684562,0.250000,0.114564
771.718127,0.400000,0.276134
771.751691,0.000000,0.035355
771.785256,-0.050000,0.160078
771.818820,0.225000,0.221853
771.852384,0.575000,0.330483
771.885948,0.250000,0.143614
771.919511,-0.250000,0.025000
771.953074,0.075000,0.124373
771.986637,0.075000,0.041458
772.020200,0.075000,0.064952
772.053762,0.125000,0.021651
772.087325,-0.125000,0.129301
772.120887,-0.450000,0.082916
772.154448,0.275000,0.129301
772.188010,0.175000,0.073951
772.221571,-0.325000,0.081968
772.255132,0.400000,0.325960
772.288692,0.525000,0.366359
772.322253,-0.175000,0.089268
772.355813,0.075000,0.219018
772.389373,-0.225000,0.096014
772.422933,0.025000,0.258300
772.456492,0.450000,0.103078
772.490051,0.300000,0.162019
772.523610,0.100000,0.150000
772.557169,0.050000,0.043301
772.590727,-0.025000,0.096014
772.624285,0.100000,0.122474
772.657843,0.200000,0.145774
772.691401,-0.225000,0.073951
772.724958,-0.175000,0.064952
772.758515,0.200000,0.079057
772.792072,0.075000,0.124373
772.825629,-0.125000,0.054486
772.859185,0.250000,0.143614
772.892741,-0.125000,0.054486
772.926297,0.000000,0.035355
772.959853,-0.150000,0.090139
772.993408,-0.725000,0.184983
773.026963,-0.275000,0.102317
773.060518,0.300000,0.203101
773.094073,-0.125000,0.064952
773.127627,0.075000,0.096014
773.161181,0.500000,0.203101
773.194735,0.450000,0.160078
773.228289,0.450000,0.147902
773.261842,1.275000,0.432110
773.295395,1.775000,0.432110
773.328948,1.200000,0.425735
773.362500,0.400000,0.093541
773.396053,-0.050000,0.134629
773.429605,0.200000,0.127475
773.463157,0.250000,0.055902
773.496708,0.100000,0.079057
773.530260,-0.125000,0.064952
773.563811,-0.100000,0.154110
773.597361,-0.200000,0.079057
773.630912,0.375000,0.300780
773.664462,0.275000,0.073951
773.698012,-0.125000,0.054486
773.731562,0.025000,0.064952
773.765111,0.175000,0.155624
773.798661,0.200000,0.203101
773.832210,0.075000,0.064952
773.865758,0.125000,0.073951
773.899307,-0.050000,0.055902
773.932855,0.050000,0.055902
773.966403,-0.175000,0.054486
773.999951,-0.025000,0.041458
774.033498,0.225000,0.096014
774.067046,0.125000,0.134048
774.100593,0.225000,0.054486
774.134139,0.250000,0.175000
774.167686,0.200000,0.127475
774.201232,0.075000,0.054486
774.234778,0.250000,0.043301
774.268324,0.100000,0.093541
774.301869,0.275000,0.332368
774.335414,-0.050000,0.129904
774.368959,0.350000,0.082916
774.402504,0.100000,0.206155
774.436048,-0.275000,0.041458
774.469592,0.025000,0.064952
774.503136,0.050000,0.103078
774.536680,0.150000,0.055902
774.570223,0.075000,0.041458
774.603766,0.200000,0.061237
774.637309,0.075000,0.041458
774.670852,0.150000,0.103078
774.704394,0.200000,0.127475
774.737936,0.350000,0.219374
774.771478,-0.150000,0.055902
774.805020,-0.050000,0.055902
774.838561,0.225000,0.255869
774.872102,0.350000,0.103078
774.905643,-0.025000,0.041458
774.939183,0.475000,0.255869
774.972724,0.425000,0.328586
775.006264,0.650000,0.270416
775.039804,1.075000,0.341641
775.073343,0.850000,0.279508
775.106882,1.475000,0.184983
775.140421,0.950000,0.450694
775.173960,-0.075000,0.240767
775.207499,-0.175000,0.064952
775.241037,0.175000,0.054486
775.274575,0.400000,0.320156
775.308113,-0.025000,0.073951
775.341650,0.275000,0.073951
775.375187,-0.025000,0.021651
775.408724,0.150000,0.160078
775.442261,0.150000,0.195256
775.475798,0.150000,0.160078
775.509334,0.150000,0.055902
775.542870,0.050000,0.075000
775.576405,-0.075000,0.064952
775.609941,0.075000,0.041458
775.643476,0.025000,0.054486
775.677011,-0.150000,0.182003
775.710546,0.100000,0.061237
775.744080,0.300000,0.127475
775.777614,0.000000,0.100000
775.811148,-0.300000,0.106066
775.844682,-0.050000,0.143614
775.878215,-0.050000,0.108972
775.911748,0.000000,0.035355
775.945281,0.075000,0.041458
775.978814,-0.300000,0.061237
776.012346,0.050000,0.134629
776.045878,0.325000,0.464186
776.079410,0.200000,0.061237
776.112941,0.300000,0.050000
776.146473,0.125000,0.170935
776.180004,0.025000,0.073951
776.213535,0.625000,0.240767
776.247065,0.625000,0.318934
776.280595,0.025000,0.041458
776.314125,0.025000,0.081968
776.347655,-0.025000,0.134048
776.381185,-0.250000,0.134629
776.414714,0.375000,0.096014
776.448243,0.500000,0.577711
776.481772,0.075000,0.138632
776.515300,-0.025000,0.108253
776.548828,-0.150000,0.075000
776.582356,-0.175000,0.096014
776.615884,0.075000,0.089268
776.649411,0.125000,0.041458
776.682938,-0.025000,0.102317
776.716465,0.050000,0.055902
776.749992,0.225000,0.174553
776.783518,0.850000,0.175000
776.817044,1.675000,0.270127
776.850570,2.175000,0.320887
776.884096,1.925000,0.224653
776.917621,1.325000,0.207289
776.951146,0.500000,0.158114
776.984671,-0.400000,0.093541
777.018196,-0.050000,0.114564
777.051720,0.175000,0.064952
777.085244,0.150000,0.090139
777.118768,-0.500000,0.127475
777.152292,0.100000,0.106066
777.185815,0.250000,0.055902
777.219338,0.025000,0.041458
777.252861,0.175000,0.134048
777.286383,-0.275000,0.021651
777.319905,0.175000,0.216145
777.353427,0.125000,0.064952
777.386949,0.100000,0.035355
777.420471,0.375000,0.224653
777.453992,0.050000,0.134629
777.487513,0.125000,0.073951
777.521033,-0.325000,0.108253
777.554554,-0.275000,0.054486
777.588074,0.000000,0.061237
777.621594,0.675000,0.440703
777.655114,0.275000,0.054486
777.688633,0.200000,0.079057
777.722152,0.475000,0.216145
777.755671,0.350000,0.251247
777.789190,0.150000,0.160078
777.822708,0.050000,0.188746
777.856226,0.250000,0.160078
777.889744,0.525000,0.155624
777.923261,0.200000,0.259808
777.956779,0.075000,0.054486
777.990296,0.250000,0.025000
778.023812,0.400000,0.215058
778.057329,-0.175000,0.096014
778.090845,0.150000,0.075000
778.124361,0.050000,0.055902
778.157877,-0.025000,0.064952
778.191392,-0.275000,0.073951
778.224908,0.175000,0.129301
778.258423,0.275000,0.181573
778.291937,-0.150000,0.055902
778.325452,0.150000,0.055902
778.358966,-0.175000,0.054486
778.392480,-0.050000,0.090139
778.425993,0.225000,0.181573
778.459507,0.050000,0.043301
778.493020,0.025000,0.108253
778.526533,0.450000,0.204634
778.560045,0.225000,0.290205
778.593558,0.925000,0.585635
778.627070,1.125000,0.248433
778.660582,2.300000,0.527968
778.694093,2.400000,0.456892
778.727605,3.950000,0.618971
778.761116,0.950000,0.178536
778.794626,1.000000,0.357071
778.828137,0.000000,0.061237
778.861647,0.300000,0.187083
778.895157,0.325000,0.258300
778.928667,-0.050000,0.055902
778.962176,-0.050000,0.075000
778.995686,0.250000,0.134629
779.029194,0.025000,0.064952
779.062703,0.025000,0.108253
779.096212,0.250000,0.055902
779.129720,0.200000,0.229129
779.163228,-0.100000,0.061237
779.196735,0.100000,0.070711
779.230243,-0.350000,0.246221
779.263750,0.100000,0.079057
779.297257,0.125000,0.081968
779.330763,0.150000,0.055902
779.364269,0.050000,0.025000
779.397776,0.250000,0.103078
779.431281,0.125000,0.054486
779.464787,0.075000,0.041458
779.498292,0.200000,0.127475
779.531797,0.100000,0.093541
779.565302,0.025000,0.064952
779.598806,0.125000,0.054486
779.632311,0.175000,0.096014
779.665814,0.100000,0.061237
779.699318,0.000000,0.086603
779.732822,0.075000,0.081968
779.766325,0.250000,0.129904
779.799828,0.225000,0.184983
779.833330,0.325000,0.155624
779.866833,-0.150000,0.055902
779.900335,0.250000,0.082916
779.933837,0.050000,0.090139
779.967338,0.650000,0.296859
780.000840,0.100000,0.244949
780.034341,-0.050000,0.134629
780.067841,0.125000,0.151554
780.101342,0.075000,0.089268
780.134842,0.050000,0.082916
780.168342,-0.175000,0.041458
780.201842,0.225000,0.096014
780.235341,0.200000,0.106066
780.268841,0.075000,0.041458
780.302340,-0.025000,0.089268
780.335838,0.125000,0.054486
780.369337,0.525000,0.347086
780.402835,0.975000,0.219018
780.436333,1.250000,0.114564
780.469830,3.725000,0.844375
780.503328,3.425000,0.412879
780.536825,5.700000,0.393700
780.570322,2.375000,0.403694
780.603818,1.175000,0.324760
780.637315,0.375000,0.417395
780.670811,-0.000000,0.145774
780.704306,0.025000,0.054486
780.737802,0.075000,0.108253
780.771297,-0.225000,0.064952
780.804792,0.025000,0.041458
780.838287,0.050000,0.090139
780.871781,0.100000,0.050000
780.905276,-0.025000,0.108253
780.938770,-0.375000,0.081968
780.972263,0.000000,0.093541
781.005757,0.375000,0.181573
781.039250,0.050000,0.090139
781.072743,0.200000,0.086603
781.106235,-0.125000,0.041458
781.139728,0.100000,0.035355
781.173220,0.500000,0.262202
781.206712,0.675000,0.330483
781.240203,0.725000,0.260708
781.273694,0.050000,0.075000
781.307185,0.050000,0.025000
781.340676,0.050000,0.125000
781.374167,0.175000,0.181573
781.407657,0.150000,0.055902
781.441147,0.000000,0.162019
781.474636,-0.050000,0.055902
781.508126,0.075000,0.081968
781.541615,-0.025000,0.108253
781.575104,0.050000,0.082916
781.608593,0.100000,0.093541
781.642081,0.000000,0.035355
781.675569,-0.125000,0.134048
781.709057,0.125000,0.163459
781.742544,0.050000,0.134629
781.776032,-0.150000,0.082916
781.809519,-0.075000,0.054486
781.843006,0.275000,0.155624
781.876492,0.025000,0.041458
781.909978,0.250000,0.129904
781.943464,0.150000,0.082916
781.976950,0.050000,0.103078
782.010435,0.075000,0.064952
782.043921,0.200000,0.111803
782.077406,0.150000,0.082916
782.110890,0.050000,0.075000
782.144375,0.125000,0.102317
782.177859,0.450000,0.296859
782.211343,-0.100000,0.061237
782.244826,0.700000,0.169558
782.278309,2.425000,0.596212
782.311792,4.575000,0.426285
782.345275,7.400000,0.814709
782.378758,5.300000,0.498748
782.412240,2.350000,0.182003
782.445722,0.475000,0.143069
782.479204,0.375000,0.216145
782.512685,0.050000,0.341870
782.546166,-0.050000,0.043301
782.579647,-0.000000,0.145774
782.613128,0.450000,0.225000
782.646608,0.150000,0.075000
782.680088,0.075000,0.102317
782.713568,-0.125000,0.041458
782.747048,0.200000,0.162019
782.780527,0.000000,0.061237
782.814006,0.150000,0.125000
782.847485,-0.075000,0.155624
782.880963,-0.175000,0.073951
782.914442,0.175000,0.194856
782.947920,-0.100000,0.070711
782.981397,0.075000,0.102317
783.014875,0.250000,0.103078
783.048352,0.200000,0.136931
783.081829,-0.050000,0.075000
783.115306,0.100000,0.093541
783.148782,0.325000,0.096014
783.182258,-0.125000,0.134048
783.215734,0.125000,0.073951
783.249209,0.000000,0.176777
783.282685,0.100000,0.035355
783.316160,0.150000,0.075000
783.349635,0.425000,0.426285
783.383109,-0.350000,0.055902
783.416583,-0.175000,0.054486
783.450057,0.125000,0.138632
783.483531,-0.125000,0.021651
783.517004,0.250000,0.108972
783.550477,0.025000,0.108253
783.583950,0.625000,0.403694
783.617423,0.400000,0.122474
783.650895,0.300000,0.079057
783.684367,0.025000,0.064952
783.717839,0.025000,0.283670
783.751311,-0.100000,0.035355
783.784782,0.125000,0.081968
783.818253,-0.050000,0.075000
783.851724,0.050000,0.055902
783.885194,0.175000,0.163459
783.918665,0.150000,0.305164
783.952134,0.275000,0.064952
783.985604,0.200000,0.070711
784.019074,0.025000,0.041458
784.052543,0.775000,0.163459
784.086012,1.375000,0.579197
784.119480,2.200000,0.544289
784.152948,6.400000,0.365718
784.186416,7.350000,0.914125
784.219884,5.525000,0.601431
784.253352,2.875000,0.672100
784.286819,0.975000,0.405239
784.320286,0.200000,0.237171
784.353753,-0.025000,0.102317
784.387219,0.100000,0.061237
784.420685,0.225000,0.054486
784.454151,-0.025000,0.096014
784.487617,-0.275000,0.096014
784.521082,0.075000,0.041458
784.554547,0.300000,0.050000
784.588012,0.250000,0.134629
784.621477,0.175000,0.188331
784.654941,0.000000,0.079057
784.688405,0.325000,0.081968
784.721869,0.100000,0.093541
784.755332,-0.025000,0.129301
784.788795,-0.000000,0.093541
784.822258,0.375000,0.216145
784.855721,0.150000,0.114564
784.889183,0.100000,0.079057
784.922646,-0.050000,0.103078
784.956107,0.200000,0.061237
784.989569,-0.175000,0.041458
785.023030,-0.100000,0.061237
785.056491,0.475000,0.332368
785.089952,-0.025000,0.064952
785.123413,-0.225000,0.054486
785.156873,-0.125000,0.151554
785.190333,-0.150000,0.082916
785.223792,0.150000,0.082916
785.257252,0.025000,0.064952
785.290711,-0.075000,0.064952
785.324170,0.225000,0.081968
785.357629,-0.100000,0.061237
785.391087,-0.100000,0.035355
785.424545,0.025000,0.041458
785.458003,0.075000,0.064952
785.491460,0.125000,0.064952
785.524918,0.150000,0.055902
785.558375,0.000000,0.035355
785.591831,0.175000,0.021651
785.625288,0.075000,0.021651
785.658744,0.225000,0.216145
785.692200,0.050000,0.147902
785.725655,0.450000,0.125000
785.759111,0.225000,0.151554
785.792566,0.300000,0.291548
785.826021,0.400000,0.262202
785.859475,-0.200000,0.093541
785.892930,0.375000,0.267804
785.926384,1.125000,0.232849
785.959837,2.600000,0.169558
785.993291,6.900000,0.790569
786.026744,8.800000,0.553399
786.060197,6.950000,0.995301
786.093649,2.400000,0.618466
786.127102,1.100000,0.247487
786.160554,0.475000,0.272431
786.194006,0.250000,0.275000
786.227457,0.375000,0.155624
786.260909,0.025000,0.081968
786.294360,-0.050000,0.055902
786.327810,-0.075000,0.143069
786.361261,0.075000,0.174553
786.394711,-0.125000,0.073951
786.428161,-0.075000,0.113880
786.461611,0.450000,0.246221
786.495060,0.050000,0.082916
786.528509,-0.075000,0.108253
786.561958,0.075000,0.073951
786.595407,0.175000,0.181573
786.628855,0.275000,0.240767
786.662303,-0.025000,0.108253
786.695751,0.350000,0.192029
786.729198,-0.050000,0.043301
786.762645,0.200000,0.061237
786.796092,-0.025000,0.041458
786.829539,0.450000,0.192029
786.862985,0.075000,0.129301
786.896431,0.000000,0.150000
786.929877,0.200000,0.145774
786.963323,0.050000,0.025000
786.996768,0.175000,0.021651
787.030213,0.000000,0.035355
787.063658,0.025000,0.198037
787.097102,-0.100000,0.050000
787.130547,-0.325000,0.096014
787.163991,-0.300000,0.086603
787.197434,-0.125000,0.021651
787.230878,0.350000,0.103078
787.264321,0.125000,0.054486
787.297764,-0.050000,0.055902
787.331206,0.250000,0.075000
787.364648,0.250000,0.055902
787.398090,0.100000,0.100000
787.431532,0.200000,0.176777
787.464974,0.050000,0.082916
787.498415,-0.175000,0.089268
787.531856,0.125000,0.021651
787.565296,-0.050000,0.143614
787.598737,0.100000,0.127475
787.632177,0.375000,0.255869
787.665617,-0.175000,0.108253
787.699056,0.250000,0.152069
787.732496,-0.050000,0.082916
787.765935,1.100000,0.615427
787.799373,3.375000,0.746136
787.832812,3.933333,0.354142
787.866250,8.366667,0.634757
787.899688,8.325000,0.799512
787.933126,3.675000,0.454663
787.966563,1.950000,0.354436
788.000000,0.675000,0.224653
788.033437,0.350000,0.195256
788.066873,-0.050000,0.025000
788.100310,-0.025000,0.021651
788.133746,0.100000,0.035355
788.167181,0.100000,0.093541
788.200617,0.075000,0.134048
788.234052,0.325000,0.143069
788.267487,-0.300000,0.093541
788.300921,0.025000,0.089268
788.334356,0.150000,0.090139
788.367790,0.025000,0.041458
788.401224,0.175000,0.054486
788.434657,-0.175000,0.089268
788.468090,-0.100000,0.050000
788.501523,0.225000,0.041458
788.534956,-0.100000,0.035355
788.568389,0.250000,0.134629
788.601821,0.025000,0.064952
788.635253,0.400000,0.229129
788.668684,0.125000,0.089268
788.702116,0.100000,0.070711
788.735547,0.125000,0.064952
788.768977,0.150000,0.025000
788.802408,0.575000,0.274716
788.835838,0.125000,0.089268
788.869268,0.200000,0.093541
788.902698,0.050000,0.055902
788.936127,-0.025000,0.188331
788.969556,0.075000,0.096014
789.002985,0.300000,0.176777
789.036414,0.025000,0.096014
789.069842,-0.125000,0.054486
789.103270,0.175000,0.041458
789.136698,0.125000,0.054486
789.170125,0.200000,0.145774
789.203552,0.250000,0.143614
789.236979,0.300000,0.117260
789.270406,-0.100000,0.106066
789.303832,0.200000,0.154110
789.337258,0.050000,0.134629
789.370684,0.175000,0.155624
789.404110,0.050000,0.090139
789.437535,0.225000,0.064952
789.470960,0.100000,0.061237
789.504385,0.050000,0.043301
789.537809,-0.025000,0.073951
789.571233,0.050000,0.043301
789.604657,1.350000,0.296859
789.638081,2.100000,0.269258
789.671504,5.466667,0.746938
789.704927,11.950000,1.336273
789.738350,10.050000,0.846685
789.771772,6.325000,0.348882
789.805195,3.025000,0.676734
789.838617,1.425000,0.430661
789.872038,0.600000,0.254951
789.905460,-0.600000,0.035355
789.938881,0.050000,0.114564
789.972302,0.225000,0.089268
790.005722,-0.025000,0.081968
790.039143,-0.050000,0.134629
790.072563,0.075000,0.089268
790.105982,0.000000,0.035355
790.139402,0.200000,0.122474
790.172821,-0.125000,0.108253
790.206240,0.225000,0.054486
790.239658,0.350000,0.147902
790.273077,0.125000,0.064952
790.306495,-0.075000,0.054486
790.339913,0.000000,0.100000
790.373330,0.100000,0.145774
790.406747,0.000000,0.035355
790.440164,-0.075000,0.113880
790.473581,0.075000,0.064952
790.506997,0.250000,0.175000
790.540414,-0.150000,0.055902
790.573829,-0.025000,0.054486
790.607245,0.000000,0.061237
790.640660,0.125000,0.113880
790.674075,0.225000,0.081968
790.707490,-0.000000,0.093541
790.740904,0.200000,0.050000
790.774319,0.025000,0.073951
790.807733,0.025000,0.113880
790.841146,0.125000,0.089268
790.874560,-0.050000,0.256174
790.907973,0.325000,0.255869
790.941385,0.475000,0.151554
790.974798,0.050000,0.125000
791.008210,0.125000,0.064952
791.041622,-0.125000,0.021651
791.075034,0.200000,0.111803
791.108445,-0.100000,0.050000
791.141856,0.425000,0.143069
791.175267,-0.225000,0.021651
791.208678,0.325000,0.073951
791.242088,0.150000,0.103078
791.275498,0.225000,0.054486
791.308908,0.350000,0.075000
791.342317,0.200000,0.061237
791.375726,0.325000,0.089268
791.409135,0.225000,0.108253
791.442544,-0.075000,0.207289
791.475952,0.725000,0.129301
791.509360,2.725000,0.643598
791.542768,8.450000,0.943729
791.576176,17.033333,0.761851
791.609583,23.900000,2.049085
791.642990,11.333333,0.973610
791.676396,4.550000,0.235850
791.709803,1.025000,0.355976
791.743209,0.550000,0.192029
791.776615,0.050000,0.075000
791.810020,0.250000,0.167705
791.843425,0.025000,0.021651
791.876830,-0.500000,0.070711
791.910235,0.225000,0.174553
791.943640,-0.125000,0.073951
791.977044,-0.100000,0.070711
792.010448,0.650000,0.340037
792.043851,0.125000,0.054486
792.077254,0.025000,0.089268
792.110658,0.050000,0.055902
792.144060,-0.050000,0.025000
792.177463,0.000000,0.079057
792.210865,-0.050000,0.043301
792.244267,0.150000,0.090139
792.277668,0.050000,0.103078
792.311070,0.275000,0.108253
792.344471,0.400000,0.169558
792.377872,0.025000,0.073951
792.411272,0.175000,0.143069
792.444672,0.200000,0.111803
792.478072,0.100000,0.035355
792.511472,0.200000,0.127475
792.544871,0.350000,0.192029
792.578271,-0.225000,0.021651
792.611669,0.125000,0.081968
792.645068,0.250000,0.219374
792.678466,-0.225000,0.064952
792.711864,-0.175000,0.041458
792.745262,-0.250000,0.055902
792.778659,-0.125000,0.119242
792.812056,0.225000,0.204252
792.845453,0.350000,0.103078
792.878850,0.175000,0.134048
792.912246,0.425000,0.207289
792.945642,0.000000,0.111803
792.979038,0.250000,0.055902
793.012433,0.200000,0.079057
793.045829,0.075000,0.073951
793.079223,-0.275000,0.064952
793.112618,-0.175000,0.041458
793.146012,0.350000,0.055902
793.179406,0.050000,0.134629
793.212800,0.350000,0.182003
793.246194,-0.025000,0.081968
793.279587,0.200000,0.127475
793.312980,0.300000,0.173205
793.346373,-0.200000,0.106066
793.379765,2.600000,0.654790
793.413157,6.600000,1.047020
793.446549,15.425000,1.097938
793.479940,17.333333,0.432049
793.513332,17.725000,0.405239
793.546723,6.900000,0.506211
793.580113,1.475000,0.378112
793.613504,0.850000,0.480234
793.646894,0.075000,0.184983
793.680284,0.100000,0.117260
793.713673,-0.100000,0.070711
793.747062,0.125000,0.073951
793.780451,-0.025000,0.124373
793.813840,0.075000,0.054486
793.847228,0.075000,0.041458
793.880617,0.125000,0.041458
793.914004,0.225000,0.064952
793.947392,-0.125000,0.155624
793.980779,-0.100000,0.000000
794.014166,-0.175000,0.163459
794.047553,0.100000,0.070711
794.080940,0.750000,0.564026
794.114326,0.025000,0.073951
794.147712,-0.150000,0.043301
794.181097,0.050000,0.082916
794.214483,0.225000,0.021651
794.247868,0.375000,0.102317
794.281252,0.225000,0.210283
794.314637,-0.275000,0.064952
794.348021,0.650000,0.536773
794.381405,0.175000,0.108253
794.414788,0.075000,0.184983
794.448172,0.375000,0.089268
794.481555,0.400000,0.348210
794.514938,-0.025000,0.041458
794.548320,-0.050000,0.075000
794.581702,0.050000,0.075000
794.615084,0.225000,0.113880
794.648466,-0.025000,0.021651
794.681847,0.350000,0.090139
794.715228,-0.250000,0.103078
794.748609,0.275000,0.245904
794.781990,-0.575000,0.174553
794.815370,1.050000,0.336341
794.848750,-0.050000,0.147902
794.882129,-0.025000,0.198037
794.915509,0.175000,0.138632
794.948888,-0.400000,0.093541
794.982267,0.100000,0.093541
795.015645,-0.050000,0.055902
795.049023,0.300000,0.000000
795.082401,-0.125000,0.073951
795.115779,-0.050000,0.055902
795.149156,0.150000,0.175000
795.182534,0.525000,0.041458
795.215910,0.400000,0.061237
795.249287,2.150000,0.632949
795.282663,6.025000,0.470870
795.316039,14.966667,1.669706
795.349415,25.375000,0.412879
795.382790,22.725000,1.015120
795.416165,13.450000,0.915492
795.449540,2.533333,0.300694
795.482915,1.575000,0.336108
795.516289,-0.050000,0.125000
795.549663,0.100000,0.079057
795.583037,0.225000,0.089268
795.616410,0.275000,0.089268
795.649783,-0.350000,0.025000
795.683156,0.425000,0.129301
795.716529,0.200000,0.093541
795.749901,-0.250000,0.055902
795.783273,0.175000,0.129301
795.816645,-0.350000,0.075000
795.850016,0.050000,0.025000
795.883387,0.150000,0.055902
795.916758,0.150000,0.043301
795.950129,-0.125000,0.081968
795.983499,-0.150000,0.025000
796.016869,-0.075000,0.064952
796.050239,-0.375000,0.041458
796.083608,0.200000,0.093541
796.116977,0.050000,0.134629
796.150346,-0.425000,0.054486
796.183714,0.100000,0.061237
796.217083,0.475000,0.167239
796.250451,0.175000,0.267804
796.283818,0.175000,0.167239
796.317186,-0.025000,0.096014
796.350553,1.050000,0.656220
796.383920,-0.175000,0.174553
796.417286,0.050000,0.055902
796.450653,0.100000,0.127475
796.484019,0.300000,0.111803
796.517384,0.350000,0.219374
796.550750,0.150000,0.043301
796.584115,0.350000,0.082916
796.617480,0.075000,0.155624
796.650844,0.075000,0.064952
796.684209,0.150000,0.055902
796.717573,-0.225000,0.054486
796.750936,0.425000,0.339807
796.784300,0.225000,0.073951
796.817663,-0.000000,0.106066
796.851026,-0.100000,0.086603
796.884388,-0.175000,0.143069
796.917751,0.025000,0.151554
796.951113,0.000000,0.093541
796.984474,0.075000,0.041458
797.017836,0.350000,0.219374
797.051197,0.125000,0.170935
797.084558,-0.300000,0.106066
797.117918,0.650000,0.167705
797.151279,1.950000,0.178536
797.184639,8.250000,0.553963
797.217998,18.950000,0.361421
797.251358,22.600000,1.608571
797.284717,20.925000,1.274448
797.318076,5.566667,0.174404
797.351434,2.425000,0.801853
797.384793,0.650000,0.279508
797.418151,0.275000,0.073951
797.451508,0.150000,0.188746
797.484866,0.225000,0.124373
797.518223,0.100000,0.000000
797.551580,-0.100000,0.061237
797.584936,0.050000,0.134629
797.618292,-0.175000,0.041458
797.651648,0.250000,0.108972
797.685004,-0.100000,0.136931
797.718360,0.050000,0.114564
797.751715,0.350000,0.114564
797.785069,0.150000,0.103078
797.818424,-0.050000,0.143614
797.851778,0.100000,0.150000
797.885132,-0.300000,0.079057
797.918486,0.375000,0.221853
797.951839,-0.150000,0.055902
797.985192,0.125000,0.081968
798.018545,0.050000,0.125000
798.051898,0.050000,0.025000
798.085250,0.425000,0.296595
798.118602,-0.025000,0.096014
798.151954,0.275000,0.248433
798.185305,0.200000,0.297909
798.218656,0.075000,0.119242
798.252007,0.250000,0.043301
798.285357,0.475000,0.108253
798.318708,-0.075000,0.089268
798.352057,0.525000,0.258300
798.385407,0.100000,0.050000
798.418756,-0.025000,0.021651
798.452106,0.125000,0.155624
798.485454,-0.300000,0.061237
798.518803,0.450000,0.114564
798.552151,0.100000,0.061237
798.585499,0.000000,0.061237
798.618847,-0.125000,0.041458
798.652194,0.100000,0.061237
798.685541,0.275000,0.108253
798.718888,0.275000,0.096014
798.752234,-0.100000,0.093541
798.785580,0.325000,0.134048
798.818926,0.100000,0.079057
798.852272,0.100000,0.093541
798.885617,-0.025000,0.210283
798.918962,0.100000,0.000000
798.952307,-0.100000,0.122474
798.985651,0.275000,0.041458
799.018996,0.825000,0.201168
799.052339,2.225000,0.544719
799.085683,10.075000,0.724892
799.119026,24.025000,1.203316
799.152369,34.200000,1.598046
799.185712,22.500000,0.127475
799.219054,12.325000,1.129920
799.252397,2.225000,0.359470
799.285738,0.525000,0.238157
799.319080,0.125000,0.081968
799.352421,0.375000,0.188331
799.385762,0.125000,0.089268
799.419103,0.250000,0.160078
799.452443,0.350000,0.292617
799.485783,0.075000,0.073951
799.519123,0.025000,0.096014
799.552463,0.050000,0.055902
799.585802,-0.050000,0.082916
799.619141,0.075000,0.073951
799.652480,-0.250000,0.090139
799.685818,-0.100000,0.117260
799.719156,0.100000,0.050000
799.752494,0.400000,0.169558
799.785831,0.075000,0.113880
799.819169,0.200000,0.127475
799.852506,0.150000,0.225000
799.885842,0.325000,0.433554
799.919179,-0.025000,0.270127
799.952515,0.125000,0.089268
799.985850,0.450000,0.134629
800.019186,-0.050000,0.134629
800.052521,-0.075000,0.064952
800.085856,-0.175000,0.041458
800.119191,0.075000,0.041458
800.152525,0.225000,0.167239
800.185859,0.275000,0.129301
800.219193,0.375000,0.151554
800.252526,0.175000,0.143069
800.285859,0.125000,0.159589
800.319192,0.150000,0.160078
800.352525,0.025000,0.113880
800.385857,0.125000,0.129301
800.419189,0.225000,0.081968
800.452521,0.650000,0.114564
800.485852,0.275000,0.073951
800.519183,0.000000,0.254951
800.552514,0.500000,0.422788
800.585844,-0.375000,0.232849
800.619175,0.625000,0.501716
800.652505,0.075000,0.181573
800.685834,0.300000,0.093541
800.719164,0.150000,0.082916
800.752493,0.250000,0.213600
800.785821,0.275000,0.054486
800.819150,-0.075000,0.089268
800.852478,0.125000,0.113880
800.885806,0.275000,0.163459
800.919134,0.675000,0.151554
800.952461,2.000000,0.333542
800.985788,11.425000,1.333874
801.019115,39.550000,2.384717
801.052441,63.650000,3.318980
801.085767,52.650000,2.598437
801.119093,27.500000,1.398660
801.152419,6.975000,0.543570
801.185744,1.325000,0.348882
801.219069,0.100000,0.061237
801.252394,0.225000,0.138632
801.285718,-0.125000,0.108253
801.319042,0.225000,0.181573
801.352366,0.050000,0.275000
801.385690,0.000000,0.079057
801.419013,-0.525000,0.163459
801.452336,-0.300000,0.257391
801.485658,-0.425000,0.216145
801.518981,0.900000,0.247487
801.552303,0.100000,0.079057
801.585625,-0.100000,0.061237
801.618946,-0.150000,0.103078
801.652267,-0.200000,0.145774
801.685588,0.100000,0.079057
801.718909,0.250000,0.075000
801.752229,0.150000,0.082916
801.785549,0.200000,0.117260
801.818869,0.125000,0.064952
801.852188,-0.200000,0.106066
801.885507,0.325000,0.089268
801.918826,0.275000,0.064952
801.952145,-0.225000,0.064952
801.985463,-0.025000,0.081968
802.018781,0.300000,0.234521
802.052099,0.000000,0.061237
802.085416,0.175000,0.096014
802.118733,0.300000,0.183712
802.152050,0.250000,0.251247
802.185366,-0.175000,0.073951
802.218683,0.150000,0.311247
802.251999,0.225000,0.102317
802.285314,0.025000,0.108253
802.318630,0.325000,0.174553
802.351945,0.050000,0.055902
802.385259,0.450000,0.296859
802.418574,0.425000,0.369755
802.451888,0.200000,0.061237
802.485202,0.225000,0.134048
802.518515,0.050000,0.134629
802.551829,0.275000,0.267804
802.585142,0.400000,0.061237
802.618454,0.400000,0.141421
802.651767,0.200000,0.176777
802.685079,-0.250000,0.371652
802.718391,0.150000,0.075000
802.751702,-0.150000,0.055902
802.785013,0.375000,0.143069
802.818324,0.550000,0.334477
802.851635,0.550000,0.108972
802.884945,2.625000,0.336108
802.918255,15.500000,0.902774
802.951565,44.133333,2.079764
802.984874,70.300000,2.705781
803.018184,46.766667,0.548103
803.051492,12.700000,0.578792
803.084801,5.325000,0.791656
803.118109,1.200000,0.483477
803.151417,-0.200000,0.215058
803.184725,0.575000,0.129301
803.218032,0.500000,0.127475
803.251339,0.225000,0.041458
803.284646,0.075000,0.108253
803.317953,0.175000,0.108253
803.351259,0.350000,0.369966
803.384565,-0.175000,0.119242
803.417870,0.200000,0.035355
803.451176,0.425000,0.096014
803.484481,0.450000,0.251247
803.517786,0.325000,0.073951
803.551090,0.100000,0.079057
803.584394,0.200000,0.176777
803.617698,0.175000,0.184983
803.651002,0.225000,0.198037
803.684305,0.225000,0.216145
803.717608,0.100000,0.106066
803.750910,0.250000,0.391312
803.784213,0.200000,0.079057
803.817515,0.275000,0.054486
803.850817,0.425000,0.361205
803.884118,0.225000,0.089268
803.917419,0.500000,0.154110
803.950720,0.100000,0.070711
803.984021,0.125000,0.089268
804.017321,0.150000,0.147902
804.050621,0.025000,0.147373
804.083921,0.025000,0.138632
804.117220,0.125000,0.064952
804.150519,0.125000,0.113880
804.183818,0.400000,0.266927
804.217117,-0.150000,0.090139
804.250415,0.550000,0.336341
804.283713,0.350000,0.114564
804.317011,0.050000,0.082916
804.350308,0.200000,0.127475
804.383605,0.300000,0.154110
804.416902,0.175000,0.102317
804.450198,0.275000,0.207289
804.483494,0.325000,0.054486
804.516790,0.450000,0.114564
804.550086,0.200000,0.127475
804.583381,-0.125000,0.021651
804.616676,0.125000,0.021651
804.649971,0.100000,0.086603
804.683265,-0.075000,0.096014
804.716559,-0.250000,0.082916
804.749853,0.750000,0.456207
804.783146,1.900000,0.657647
804.816440,4.325000,0.672100
804.849732,21.366667,1.523702
804.883025,56.566667,2.296011
804.916317,81.925000,3.627391
804.949609,44.375000,2.970138
804.982901,16.850000,0.882114
805.016192,3.175000,0.693159
805.049484,1.025000,0.216145
805.082774,-0.300000,0.165831
805.116065,0.550000,0.275000
805.149355,0.025000,0.054486
805.182645,0.225000,0.134048
805.215935,0.400000,0.176777
805.249224,0.025000,0.113880
805.282513,0.100000,0.136931
805.315802,0.150000,0.103078
805.349090,0.175000,0.096014
805.382378,0.225000,0.227418
805.415666,0.050000,0.055902
805.448954,0.275000,0.064952
805.482241,0.175000,0.188331
805.515528,0.250000,0.090139
805.548815,0.200000,0.093541
805.582101,0.550000,0.192029
805.615387,0.275000,0.081968
805.648673,0.625000,0.411362
805.681958,-0.125000,0.230149
805.715243,0.200000,0.145774
805.748528,0.225000,0.129301
805.781813,0.400000,0.493710
805.815097,0.250000,0.090139
805.848381,-0.275000,0.073951
805.881665,0.025000,0.207289
805.914948,0.450000,0.213600
805.948231,0.025000,0.170935
805.981514,-0.025000,0.064952
806.014796,0.225000,0.245904
806.048079,0.275000,0.064952
806.081360,0.050000,0.055902
806.114642,0.100000,0.154110
806.147923,0.250000,0.043301
806.181204,0.200000,0.259808
806.214485,-0.350000,0.114564
806.247765,0.075000,0.191621
806.281046,0.600000,0.353553
806.314325,0.300000,0.215058
806.347605,0.500000,0.318198
806.380884,-0.475000,0.113880
806.414163,0.300000,0.111803
806.447441,0.225000,0.147373
806.480720,0.475000,0.213234
806.513998,0.375000,0.167239
806.547275,0.300000,0.136931
806.580553,0.375000,0.238157
806.613830,0.150000,0.147902
806.647107,0.350000,0.167705
806.680383,0.325000,0.198037
806.713659,0.950000,0.283945
806.746935,2.775000,0.412879
806.780211,20.225000,1.308327
806.813486,71.766667,1.866257
806.846761,133.725000,2.760067
806.880036,89.500000,2.581182
806.913310,29.950000,1.110462
806.946584,6.975000,0.750312
806.979858,1.050000,0.480234
807.013132,0.150000,0.167705
807.046405,0.050000,0.108972
807.079678,0.275000,0.073951
807.112951,0.425000,0.134048
807.146223,-0.275000,0.064952
807.179495,0.050000,0.090139
807.212767,-0.500000,0.183712
807.246038,0.275000,0.124373
807.279309,0.425000,0.515237
807.312580,0.250000,0.163936
807.345850,-0.275000,0.119242
807.379121,0.300000,0.231840
807.412390,0.350000,0.192029
807.445660,0.075000,0.129301
807.478929,0.600000,0.293684
807.512198,0.475000,0.260708
807.545467,-0.150000,0.055902
807.578735,-0.050000,0.055902
807.612004,-0.650000,0.025000
807.645271,0.025000,0.054486
807.678539,-0.125000,0.213234
807.711806,0.200000,0.141421
807.745073,-0.075000,0.054486
807.778340,0.250000,0.192029
807.811606,1.375000,0.412879
807.844872,0.525000,0.373120
807.878138,0.200000,0.209165
807.911403,-0.125000,0.113880
807.944668,0.375000,0.224653
807.977933,0.225000,0.248433
808.011197,0.450000,0.178536
808.044462,0.300000,0.242384
808.077725,0.075000,0.096014
808.110989,0.150000,0.147902
808.144252,0.575000,0.129301
808.177515,0.325000,0.224653
808.210778,-0.025000,0.073951
808.244040,0.175000,0.134048
808.277302,-0.075000,0.198037
808.310564,0.050000,0.075000
808.343826,0.450000,0.160078
808.377087,0.150000,0.075000
808.410348,0.425000,0.108253
808.443608,0.825000,0.343466
808.476869,-0.125000,0.108253
808.510129,-0.050000,0.090139
808.543388,0.575000,0.430661
808.576648,0.850000,0.216506
808.609907,0.050000,0.108972
808.643165,0.475000,0.243349
808.676424,1.025000,0.151554
808.709682,7.233333,0.507855
808.742940,64.150000,1.649811
808.776197,187.750000,3.003644
808.809455,189.950000,5.769153
808.842712,69.333333,4.177070
808.875968,15.450000,0.328824
808.909225,2.300000,0.162019
808.942481,0.525000,0.194856
808.975736,0.725000,0.394295
809.008992,0.200000,0.242384
809.042247,0.050000,0.043301
809.075502,0.050000,0.167705
809.108756,-0.225000,0.399022
809.142011,0.300000,0.154110
809.175265,0.075000,0.143069
809.208518,0.125000,0.081968
809.241772,0.225000,0.253414
809.275025,0.400000,0.061237
809.308277,0.125000,0.129301
809.341530,0.900000,0.176777
809.374782,0.750000,0.248747
809.408034,0.650000,0.317214
809.441285,-0.025000,0.276981
809.474536,-0.425000,0.163459
809.507787,0.050000,0.235850
809.541038,0.475000,0.267804
809.574288,0.100000,0.196850
809.607538,0.125000,0.138632
809.640788,0.425000,0.119242
809.674037,0.200000,0.050000
809.707286,0.075000,0.096014
809.740535,0.425000,0.188331
809.773783,0.400000,0.154110
809.807032,0.125000,0.163459
809.840279,-0.125000,0.290205
809.873527,-0.375000,0.073951
809.906774,0.275000,0.096014
809.940021,0.125000,0.216145
809.973268,0.225000,0.138632
810.006514,0.275000,0.368061
810.039760,0.050000,0.143614
810.073006,0.775000,0.379761
810.106251,0.225000,0.089268
810.139497,0.025000,0.054486
810.172741,0.175000,0.108253
810.205986,0.600000,0.266927
810.239230,-0.350000,0.160078
810.272474,1.000000,0.451387
810.305718,0.650000,0.500625
810.338961,0.725000,0.478768
810.372204,0.350000,0.496865
810.405447,0.025000,0.198037
810.438689,1.200000,0.604152
810.471931,0.025000,0.306951
810.505173,0.450000,0.317214
810.538414,1.675000,0.389511
810.571656,0.700000,0.320156
810.604897,0.825000,0.163459
810.638137,2.050000,0.292617
810.671377,24.725000,1.135438
810.704617,135.800000,3.608324
810.737857,376.550000,5.426613
810.771096,360.400000,7.659553
810.804335,117.750000,6.703963
810.837574,19.475000,1.077251
810.870813,3.125000,0.392707
810.904051,1.525000,0.486538
810.937288,1.275000,0.253414
810.970526,0.600000,0.183712
811.003763,-0.025000,0.178098
811.037000,0.200000,0.262202
811.070237,-0.050000,0.134629
811.103473,0.675000,0.296595
811.136709,0.350000,0.396074
811.169945,-0.200000,0.127475
811.203180,0.125000,0.064952
811.236415,0.725000,0.308980
811.269650,0.450000,0.296859
811.302884,-0.125000,0.143069
811.336119,0.025000,0.253414
811.369352,0.300000,0.293684
811.402586,0.825000,0.302851
811.435819,1.350000,0.394493
811.469052,-1.266667,0.657013
811.502285,0.700000,1.556037
811.535517,-2.075000,0.541266
811.568749,-0.750000,0.227761
811.601981,1.500000,0.594769
811.635212,0.075000,0.238157
811.668443,0.150000,0.265754
811.701674,0.600000,0.353553
811.734905,0.150000,0.195256
811.768135,0.600000,0.257391
811.801365,0.600000,0.276134
811.834594,-0.150000,0.075000
811.867824,-0.175000,0.113880
811.901053,0.100000,0.276134
811.934281,-0.300000,0.297909
811.967510,-0.100000,0.136931
812.000738,0.375000,0.248433
812.033965,0.600000,0.407738
812.067193,-0.000000,0.351781
812.100420,-0.200000,0.158114
812.133647,-0.375000,0.064952
812.166873,-0.975000,0.143069
812.200099,0.025000,0.054486
812.233325,0.075000,0.143069
812.266551,-0.300000,0.154110
812.299776,0.275000,0.224653
812.333001,0.250000,0.090139
812.366226,0.125000,0.089268
812.399450,-0.025000,0.102317
812.432674,0.475000,0.174553
812.465898,-0.000000,0.203101
812.499121,0.050000,0.114564
812.532345,0.850000,0.403887
812.565567,0.450000,0.134629
812.598790,0.850000,0.129904
812.632012,5.675000,0.470870
812.665234,40.300000,0.895126
812.698456,130.600000,1.122497
812.731677,160.325000,3.420778
812.764898,54.000000,2.265778
812.798119,9.675000,1.232059
812.831339,1.275000,0.272431
812.864559,0.400000,0.070711
812.897779,0.350000,0.311247
812.930998,0.100000,0.035355
812.964217,0.200000,0.117260
812.997436,0.050000,0.147902
813.030655,-0.125000,0.073951
813.063873,-0.200000,0.035355
813.097091,0.225000,0.143069
813.130308,-0.525000,0.108253
813.163526,-0.125000,0.041458
813.196743,0.125000,0.147373
813.229959,0.475000,0.276981
813.263176,0.100000,0.093541
813.296392,0.100000,0.145774
813.329607,0.325000,0.308980
813.362823,0.000000,0.035355
813.396038,0.125000,0.054486
813.429253,-0.150000,0.055902
813.462467,-0.225000,0.041458
813.495682,0.025000,0.096014
813.528895,-0.025000,0.113880
813.562109,0.600000,0.262202
813.595322,0.000000,0.106066
813.628535,0.375000,0.124373
813.661748,0.050000,0.055902
813.694960,-0.050000,0.188746
813.728172,-0.025000,0.064952
813.761384,0.225000,0.129301
813.794596,-0.575000,0.073951
813.827807,-0.475000,0.102317
813.861017,-0.175000,0.073951
813.894228,0.100000,0.093541
813.927438,0.300000,0.203101
813.960648,-0.025000,0.021651
813.993858,0.000000,0.070711
814.027067,0.025000,0.054486
814.060276,0.400000,0.093541
814.093485,0.025000,0.238157
814.126693,-0.050000,0.055902
814.159901,-0.275000,0.054486
814.193109,-0.525000,0.143069
814.226316,0.525000,0.096014
814.259523,0.075000,0.054486
814.292730,-0.100000,0.061237
814.325936,0.200000,0.093541
814.359143,0.100000,0.169558
814.392348,0.125000,0.155624
814.425554,0.050000,0.160078
814.458759,0.050000,0.055902
814.491964,0.075000,0.178098
814.525169,0.000000,0.117260
814.558373,-0.300000,0.093541
814.591577,-0.125000,0.113880
814.624781,0.225000,0.227418
814.657984,0.750000,0.309233
