#{
#    "background_file": "Backgrounds\\\\bg_787.999nm_16bin_197st_244en_10.0s_110g_4x_1_seq.txt",
#    "ccd_image_settings": [
#        1,
#        16,
#        1,
#        1600,
#        197,
#        244
#    ],
#    "ccd_temperature": "-88",
#    "cdRatios": {
#        "mean": 0.9123585445295088,
#        "std": 0.006723987525625161
#    },
#    "center_lambda": 788.0,
#    "comments": "",
#    "dark_region": 0.2624382200365212,
#    "date": "11/17/19 14:32:09PM",
#    "eff_field": 1.5,
#    "exposure": 10.0,
#    "fel_lambda": "15.0",
#    "fel_pol": "H",
#    "fel_pulses": 40,
#    "fel_pyro_cal": "0.017",
#    "fel_reprate": "1.07",
#    "fel_transmission": "1.0",
#    "fel_transmission_fits": {
#        "A": 1.0,
#        "C": 0.0,
#        "Mu": 0.0
#    },
#    "fieldInt": {
#        "mean": 9883.567136363636,
#        "std": 285.0374392774564
#    },
#    "fieldStrength": {
#        "mean": 45.60895454545455,
#        "std": 0.6606398225895822
#    },
#    "fpTime": {
#        "mean": 1.304493762583602,
#        "std": 0.07206142568664346
#    },
#    "gain": 110,
#    "grating": 3,
#    "images_in_sequence": [
#        "hsg_SpotD_crystal16_an45_HAna145.txt",
#        "hsg_SpotD_crystal16_an45_HAna146.txt",
#        "hsg_SpotD_crystal16_an45_HAna147.txt",
#        "hsg_SpotD_crystal16_an45_HAna148.txt"
#    ],
#    "nir_lambda": "820.9918",
#    "nir_pola": "-45",
#    "nir_polg": "0",
#    "nir_power": "100.0",
#    "pulseEnergies": {
#        "mean": 2.1732954545454546,
#        "std": 0.07496216956008259
#    },
#    "pyroVoltage": {
#        "mean": 0.14018207302451582,
#        "std": 0.005688524937316748
#    },
#    "rotatorAngle": 67.49999633788168,
#    "sample_Temp": "58",
#    "sample_name": "L001218.C3",
#    "series": "SpotD_16_-45",
#    "slits": "60",
#    "spec_step": "",
#    "window_trans": 0.92,
#    "y_max": 2,
#    "y_min": 1
#}
#
#
#
#
#
#
#
#
#
#
#
#
#
#
#
#
#
#
#
#
#
#
#
#
#
#
Wavelength,Signal,error
nm,arb. u.,arb.u.
Wavelength,SpotD_16_-45,error
761.200217,0.125000,0.224653
761.233859,0.025000,0.064952
761.267500,0.250000,0.160078
761.301141,-0.275000,0.081968
761.334781,0.675000,0.343466
761.368422,-0.325000,0.041458
761.402062,0.125000,0.167239
761.435702,0.025000,0.147373
761.469342,-0.125000,0.155624
761.502981,0.050000,0.167705
761.536620,0.075000,0.194856
761.570259,0.150000,0.364863
761.603898,0.150000,0.055902
761.637537,0.025000,0.194856
761.671175,-0.075000,0.096014
761.704813,0.325000,0.138632
761.738451,0.025000,0.064952
761.772088,0.025000,0.073951
761.805726,0.025000,0.081968
761.839363,-0.150000,0.114564
761.873000,-0.450000,0.043301
761.906636,0.200000,0.154110
761.940273,0.200000,0.117260
761.973909,0.175000,0.167239
762.007545,0.250000,0.103078
762.041180,-0.225000,0.054486
762.074816,-0.100000,0.070711
762.108451,0.225000,0.204252
762.142086,0.225000,0.054486
762.175720,0.050000,0.090139
762.209355,0.225000,0.129301
762.242989,0.325000,0.054486
762.276623,0.025000,0.064952
762.310257,0.050000,0.075000
762.343890,-0.300000,0.093541
762.377524,-0.275000,0.108253
762.411157,-0.000000,0.079057
762.444789,0.100000,0.035355
762.478422,0.375000,0.243349
762.512054,0.075000,0.073951
762.545686,0.150000,0.175000
762.579318,0.175000,0.096014
762.612950,0.175000,0.184983
762.646581,0.100000,0.407738
762.680212,0.075000,0.073951
762.713843,0.200000,0.086603
762.747474,0.350000,0.147902
762.781104,-0.100000,0.079057
762.814734,-0.400000,0.035355
762.848364,-0.125000,0.073951
762.881994,0.000000,0.070711
762.915623,0.025000,0.138632
762.949252,0.050000,0.090139
762.982881,0.475000,0.163459
763.016510,0.500000,0.289396
763.050139,-0.075000,0.073951
763.083767,0.175000,0.096014
763.117395,0.050000,0.114564
763.151023,0.200000,0.169558
763.184650,0.275000,0.151554
763.218277,-0.400000,0.035355
763.251904,-0.025000,0.041458
763.285531,-0.050000,0.055902
763.319158,0.000000,0.035355
763.352784,0.075000,0.354216
763.386410,-0.300000,0.070711
763.420036,0.500000,0.686477
763.453661,0.250000,0.477624
763.487287,0.525000,0.462838
763.520912,-1.225000,0.096014
763.554537,0.225000,0.064952
763.588161,-0.175000,0.041458
763.621786,0.075000,0.240767
763.655410,0.075000,0.054486
763.689034,-0.225000,0.064952
763.722657,0.075000,0.167239
763.756281,-0.000000,0.086603
763.789904,0.025000,0.129301
763.823527,0.125000,0.290205
763.857150,-0.100000,0.061237
763.890772,-0.050000,0.114564
763.924394,0.125000,0.041458
763.958016,0.075000,0.096014
763.991638,0.575000,0.378112
764.025260,0.175000,0.134048
764.058881,0.400000,0.379144
764.092502,-0.275000,0.064952
764.126123,0.225000,0.089268
764.159743,-0.125000,0.073951
764.193363,0.050000,0.025000
764.226983,-0.025000,0.064952
764.260603,0.075000,0.054486
764.294223,-0.250000,0.082916
764.327842,0.025000,0.119242
764.361461,-0.050000,0.075000
764.395080,0.350000,0.192029
764.428699,0.250000,0.275000
764.462317,0.150000,0.143614
764.495935,0.025000,0.253414
764.529553,-0.075000,0.021651
764.563170,0.125000,0.096014
764.596788,0.050000,0.090139
764.630405,-0.125000,0.124373
764.664022,-0.125000,0.188331
764.697638,0.425000,0.081968
764.731255,-0.050000,0.043301
764.764871,0.000000,0.061237
764.798487,-0.125000,0.073951
764.832103,-0.125000,0.041458
764.865718,0.075000,0.089268
764.899333,-0.025000,0.021651
764.932948,-0.200000,0.035355
764.966563,-0.075000,0.041458
765.000177,0.075000,0.064952
765.033792,-0.075000,0.064952
765.067406,-0.025000,0.073951
765.101019,-0.100000,0.050000
765.134633,-0.225000,0.213234
765.168246,0.375000,0.255869
765.201859,0.050000,0.134629
765.235472,0.100000,0.079057
765.269084,0.425000,0.255869
765.302697,-0.200000,0.070711
765.336309,0.475000,0.096014
765.369920,0.150000,0.108972
765.403532,-0.200000,0.061237
765.437143,-0.250000,0.103078
765.470754,0.175000,0.073951
765.504365,-0.025000,0.021651
765.537976,0.000000,0.035355
765.571586,-0.175000,0.064952
765.605196,-0.125000,0.143069
765.638806,-0.050000,0.055902
765.672416,-0.100000,0.061237
765.706025,-0.050000,0.090139
765.739634,0.100000,0.093541
765.773243,0.150000,0.090139
765.806851,0.150000,0.134629
765.840460,0.200000,0.070711
765.874068,0.150000,0.195256
765.907676,0.050000,0.025000
765.941284,0.250000,0.261008
765.974891,0.100000,0.070711
766.008498,0.200000,0.111803
766.042105,-0.225000,0.073951
766.075712,-0.050000,0.134629
766.109318,0.400000,0.187083
766.142924,-0.025000,0.102317
766.176530,-0.275000,0.064952
766.210136,0.325000,0.235518
766.243741,0.200000,0.165831
766.277347,-0.225000,0.113880
766.310951,-0.175000,0.041458
766.344556,-0.075000,0.081968
766.378161,0.000000,0.035355
766.411765,-0.100000,0.050000
766.445369,-0.075000,0.041458
766.478973,-0.375000,0.089268
766.512576,-0.125000,0.041458
766.546179,-0.100000,0.061237
766.579782,0.025000,0.102317
766.613385,0.275000,0.240767
766.646988,-0.150000,0.075000
766.680590,0.125000,0.073951
766.714192,-0.025000,0.041458
766.747794,0.175000,0.224653
766.781395,0.475000,0.178098
766.814996,-0.475000,0.041458
766.848597,-0.150000,0.055902
766.882198,0.350000,0.082916
766.915799,0.000000,0.035355
766.949399,0.200000,0.262202
766.982999,0.050000,0.082916
767.016599,-0.325000,0.021651
767.050198,-0.125000,0.113880
767.083798,0.025000,0.041458
767.117397,-0.275000,0.129301
767.150996,-0.150000,0.090139
767.184594,-0.175000,0.064952
767.218193,0.175000,0.188331
767.251791,-0.100000,0.111803
767.285389,-0.325000,0.073951
767.318986,0.125000,0.207289
767.352583,0.075000,0.041458
767.386181,0.150000,0.147902
767.419777,0.025000,0.147373
767.453374,0.075000,0.041458
767.486970,-0.350000,0.103078
767.520567,0.600000,0.229129
767.554162,0.200000,0.176777
767.587758,0.025000,0.113880
767.621353,0.075000,0.054486
767.654949,-0.050000,0.055902
767.688543,0.250000,0.055902
767.722138,0.050000,0.125000
767.755732,0.225000,0.096014
767.789327,-0.150000,0.082916
767.822921,0.025000,0.368061
767.856514,-0.150000,0.043301
767.890108,1.225000,0.129301
767.923701,0.300000,0.127475
767.957294,0.325000,0.089268
767.990886,0.425000,0.296595
768.024479,0.100000,0.150000
768.058071,-0.075000,0.064952
768.091663,-0.175000,0.064952
768.125255,0.150000,0.167705
768.158846,0.000000,0.106066
768.192437,-0.425000,0.021651
768.226028,-0.125000,0.073951
768.259619,0.050000,0.125000
768.293209,-0.025000,0.021651
768.326799,0.050000,0.134629
768.360389,-0.025000,0.096014
768.393979,-0.225000,0.021651
768.427568,0.025000,0.096014
768.461158,-0.100000,0.079057
768.494747,-0.100000,0.061237
768.528335,-0.200000,0.050000
768.561924,0.250000,0.103078
768.595512,0.375000,0.270127
768.629100,0.225000,0.081968
768.662688,-0.050000,0.075000
768.696275,-0.150000,0.075000
768.729862,-0.125000,0.194856
768.763449,0.075000,0.240767
768.797036,-0.200000,0.035355
768.830623,0.100000,0.035355
768.864209,0.025000,0.064952
768.897795,0.050000,0.025000
768.931381,0.025000,0.064952
768.964966,0.225000,0.399022
768.998551,0.425000,0.339807
769.032136,0.075000,0.188331
769.065721,0.050000,0.143614
769.099305,0.025000,0.073951
769.132890,-0.150000,0.108972
769.166474,0.250000,0.178536
769.200057,-0.150000,0.143614
769.233641,-0.025000,0.081968
769.267224,0.475000,0.230149
769.300807,-0.475000,0.041458
769.334390,-0.225000,0.073951
769.367972,0.100000,0.093541
769.401555,-0.125000,0.041458
769.435137,-0.250000,0.075000
769.468718,0.275000,0.155624
769.502300,0.150000,0.134629
769.535881,-0.100000,0.035355
769.569462,-0.475000,0.113880
769.603043,-0.050000,0.114564
769.636623,0.200000,0.150000
769.670204,0.175000,0.245904
769.703784,0.175000,0.267804
769.737364,0.600000,0.217945
769.770943,-0.025000,0.089268
769.804522,0.625000,0.324760
769.838101,0.000000,0.127475
769.871680,-0.050000,0.167705
769.905259,-0.150000,0.288314
769.938837,-0.025000,0.021651
769.972415,-0.075000,0.096014
770.005993,0.275000,0.181573
770.039570,-0.050000,0.055902
770.073147,-0.075000,0.021651
770.106724,-0.250000,0.055902
770.140301,0.150000,0.075000
770.173878,0.275000,0.330483
770.207454,0.200000,0.127475
770.241030,-0.050000,0.090139
770.274606,-0.025000,0.102317
770.308181,-0.075000,0.064952
770.341757,-0.075000,0.041458
770.375332,0.175000,0.129301
770.408906,0.300000,0.187083
770.442481,-0.075000,0.204252
770.476055,-0.125000,0.064952
770.509629,0.375000,0.143069
770.543203,-0.150000,0.025000
770.576776,0.075000,0.163459
770.610350,0.050000,0.103078
770.643923,-0.075000,0.054486
770.677495,0.150000,0.114564
770.711068,0.475000,0.194856
770.744640,0.200000,0.212132
770.778212,-0.100000,0.050000
770.811784,-0.050000,0.075000
770.845356,-0.175000,0.041458
770.878927,0.250000,0.055902
770.912498,0.225000,0.204252
770.946069,-0.100000,0.061237
770.979639,0.250000,0.201556
771.013209,0.200000,0.079057
771.046779,-0.525000,0.113880
771.080349,0.025000,0.151554
771.113919,-0.025000,0.041458
771.147488,-0.050000,0.103078
771.181057,-0.150000,0.075000
771.214626,-0.025000,0.096014
771.248194,0.025000,0.041458
771.281762,0.300000,0.165831
771.315330,0.075000,0.073951
771.348898,0.250000,0.125000
771.382465,-0.275000,0.124373
771.416033,0.875000,0.544719
771.449600,0.700000,0.302076
771.483166,0.825000,0.188331
771.516733,0.950000,0.408503
771.550299,0.725000,0.248433
771.583865,0.550000,0.256174
771.617431,-0.075000,0.113880
771.650996,0.325000,0.216145
771.684562,-0.075000,0.073951
771.718127,-0.175000,0.021651
771.751691,0.225000,0.191621
771.785256,-0.150000,0.055902
771.818820,-0.050000,0.090139
771.852384,0.275000,0.129301
771.885948,0.300000,0.242384
771.919511,-0.075000,0.113880
771.953074,0.050000,0.103078
771.986637,0.075000,0.054486
772.020200,0.075000,0.054486
772.053762,-0.025000,0.073951
772.087325,-0.025000,0.081968
772.120887,-0.250000,0.114564
772.154448,0.225000,0.102317
772.188010,0.075000,0.089268
772.221571,-0.225000,0.089268
772.255132,0.400000,0.117260
772.288692,-0.250000,0.043301
772.322253,0.175000,0.138632
772.355813,-0.425000,0.089268
772.389373,0.150000,0.261008
772.422933,-0.400000,0.079057
772.456492,-0.050000,0.082916
772.490051,0.225000,0.081968
772.523610,0.075000,0.119242
772.557169,-0.125000,0.073951
772.590727,0.050000,0.216506
772.624285,0.025000,0.041458
772.657843,0.050000,0.075000
772.691401,-0.225000,0.096014
772.724958,0.350000,0.251247
772.758515,0.225000,0.230149
772.792072,0.150000,0.075000
772.825629,-0.275000,0.021651
772.859185,0.150000,0.167705
772.892741,-0.050000,0.143614
772.926297,0.100000,0.061237
772.959853,-0.025000,0.081968
772.993408,-0.425000,0.238157
773.026963,0.250000,0.534439
773.060518,0.075000,0.184983
773.094073,-0.050000,0.103078
773.127627,-0.050000,0.055902
773.161181,0.500000,0.203101
773.194735,0.275000,0.041458
773.228289,1.000000,0.351781
773.261842,1.000000,0.231840
773.295395,1.250000,0.543714
773.328948,1.400000,0.337268
773.362500,0.600000,0.231840
773.396053,0.400000,0.231840
773.429605,-0.150000,0.055902
773.463157,0.425000,0.216145
773.496708,0.225000,0.041458
773.530260,-0.325000,0.073951
773.563811,-0.225000,0.073951
773.597361,0.250000,0.256174
773.630912,0.400000,0.262202
773.664462,0.200000,0.035355
773.698012,-0.125000,0.143069
773.731562,0.100000,0.122474
773.765111,0.050000,0.108972
773.798661,0.075000,0.021651
773.832210,0.100000,0.106066
773.865758,-0.050000,0.055902
773.899307,0.250000,0.090139
773.932855,0.225000,0.089268
773.966403,-0.125000,0.073951
773.999951,0.100000,0.035355
774.033498,0.450000,0.204634
774.067046,0.275000,0.073951
774.100593,0.225000,0.224653
774.134139,0.100000,0.061237
774.167686,0.000000,0.061237
774.201232,0.075000,0.064952
774.234778,0.275000,0.096014
774.268324,-0.000000,0.117260
774.301869,0.300000,0.215058
774.335414,-0.325000,0.081968
774.368959,0.200000,0.325960
774.402504,-0.075000,0.102317
774.436048,-0.150000,0.160078
774.469592,0.250000,0.175000
774.503136,0.175000,0.138632
774.536680,0.425000,0.245904
774.570223,0.575000,0.326678
774.603766,0.225000,0.089268
774.637309,0.150000,0.043301
774.670852,0.100000,0.154110
774.704394,0.025000,0.198037
774.737936,0.100000,0.183712
774.771478,0.125000,0.151554
774.805020,0.075000,0.081968
774.838561,0.100000,0.050000
774.872102,0.300000,0.111803
774.905643,0.125000,0.073951
774.939183,0.450000,0.129904
774.972724,0.225000,0.240767
775.006264,1.200000,0.379144
775.039804,2.175000,0.466871
775.073343,0.925000,0.155624
775.106882,1.650000,0.286138
775.140421,0.875000,0.469541
775.173960,-0.350000,0.090139
775.207499,-0.150000,0.188746
775.241037,0.025000,0.041458
775.274575,-0.175000,0.041458
775.308113,-0.175000,0.041458
775.341650,0.350000,0.147902
775.375187,0.125000,0.129301
775.408724,-0.200000,0.093541
775.442261,-0.025000,0.041458
775.475798,-0.175000,0.021651
775.509334,0.150000,0.043301
775.542870,-0.125000,0.041458
775.576405,-0.225000,0.054486
775.609941,0.300000,0.127475
775.643476,-0.050000,0.025000
775.677011,-0.275000,0.113880
775.710546,0.300000,0.061237
775.744080,0.025000,0.073951
775.777614,-0.025000,0.184983
775.811148,-0.200000,0.035355
775.844682,-0.200000,0.093541
775.878215,-0.225000,0.021651
775.911748,0.000000,0.061237
775.945281,0.075000,0.054486
775.978814,-0.275000,0.119242
776.012346,-0.175000,0.054486
776.045878,-0.250000,0.055902
776.079410,0.400000,0.079057
776.112941,0.275000,0.041458
776.146473,0.775000,0.491649
776.180004,-0.100000,0.070711
776.213535,0.200000,0.079057
776.247065,0.075000,0.129301
776.280595,0.100000,0.061237
776.314125,0.025000,0.064952
776.347655,-0.150000,0.075000
776.381185,-0.175000,0.204252
776.414714,0.325000,0.167239
776.448243,0.050000,0.134629
776.481772,-0.025000,0.089268
776.515300,0.050000,0.160078
776.548828,-0.175000,0.041458
776.582356,-0.300000,0.000000
776.615884,-0.100000,0.061237
776.649411,-0.050000,0.075000
776.682938,0.350000,0.279508
776.716465,0.175000,0.134048
776.749992,0.475000,0.194856
776.783518,0.800000,0.122474
776.817044,1.250000,0.192029
776.850570,1.775000,0.786905
776.884096,2.325000,0.745298
776.917621,1.575000,0.178098
776.951146,0.850000,0.422049
776.984671,-0.075000,0.232849
777.018196,0.200000,0.136931
777.051720,-0.100000,0.070711
777.085244,0.025000,0.064952
777.118768,-0.575000,0.041458
777.152292,-0.025000,0.041458
777.185815,-0.025000,0.073951
777.219338,-0.150000,0.055902
777.252861,0.050000,0.219374
777.286383,0.000000,0.106066
777.319905,0.200000,0.127475
777.353427,0.175000,0.089268
777.386949,0.075000,0.081968
777.420471,0.275000,0.108253
777.453992,-0.100000,0.093541
777.487513,0.100000,0.061237
777.521033,-0.425000,0.064952
777.554554,0.025000,0.129301
777.588074,0.100000,0.061237
777.621594,0.250000,0.055902
777.655114,0.400000,0.212132
777.688633,0.150000,0.175000
777.722152,0.075000,0.163459
777.755671,-0.100000,0.079057
777.789190,0.075000,0.129301
777.822708,-0.325000,0.064952
777.856226,0.250000,0.055902
777.889744,0.200000,0.061237
777.923261,0.100000,0.061237
777.956779,0.125000,0.147373
777.990296,0.025000,0.064952
778.023812,0.325000,0.216145
778.057329,-0.125000,0.073951
778.090845,0.300000,0.136931
778.124361,-0.025000,0.073951
778.157877,0.325000,0.230149
778.191392,-0.250000,0.025000
778.224908,0.075000,0.124373
778.258423,0.125000,0.124373
778.291937,-0.050000,0.075000
778.325452,0.075000,0.096014
778.358966,-0.025000,0.054486
778.392480,0.050000,0.025000
778.425993,-0.025000,0.054486
778.459507,-0.150000,0.082916
778.493020,-0.175000,0.041458
778.526533,-0.050000,0.043301
778.560045,-0.125000,0.134048
778.593558,-0.050000,0.108972
778.627070,1.250000,0.628987
778.660582,1.750000,0.493077
778.694093,2.825000,0.194856
778.727605,2.050000,0.235850
778.761116,1.850000,0.449305
778.794626,0.550000,0.134629
778.828137,0.250000,0.125000
778.861647,0.225000,0.198037
778.895157,0.500000,0.231840
778.928667,0.000000,0.050000
778.962176,0.025000,0.089268
778.995686,-0.050000,0.055902
779.029194,0.175000,0.021651
779.062703,0.325000,0.089268
779.096212,0.050000,0.025000
779.129720,0.025000,0.073951
779.163228,-0.225000,0.021651
779.196735,0.000000,0.061237
779.230243,-0.700000,0.093541
779.263750,-0.100000,0.086603
779.297257,0.050000,0.075000
779.330763,0.100000,0.093541
779.364269,-0.025000,0.124373
779.397776,0.025000,0.054486
779.431281,0.050000,0.055902
779.464787,0.250000,0.129904
779.498292,0.300000,0.127475
779.531797,0.175000,0.064952
779.565302,-0.075000,0.041458
779.598806,0.000000,0.050000
779.632311,0.225000,0.041458
779.665814,0.175000,0.073951
779.699318,0.175000,0.219018
779.732822,0.325000,0.113880
779.766325,0.275000,0.163459
779.799828,0.050000,0.055902
779.833330,0.125000,0.073951
779.866833,-0.100000,0.061237
779.900335,0.175000,0.096014
779.933837,-0.050000,0.103078
779.967338,-0.150000,0.043301
780.000840,-0.100000,0.079057
780.034341,0.050000,0.163936
780.067841,0.200000,0.150000
780.101342,0.075000,0.073951
780.134842,0.275000,0.064952
780.168342,-0.150000,0.043301
780.201842,0.400000,0.176777
780.235341,0.000000,0.117260
780.268841,0.075000,0.143069
780.302340,0.225000,0.194856
780.335838,0.450000,0.192029
780.369337,0.000000,0.070711
780.402835,0.925000,0.424816
780.436333,1.000000,0.158114
780.469830,3.300000,0.826892
780.503328,4.900000,0.280624
780.536825,4.050000,0.577170
780.570322,3.050000,0.632949
780.603818,0.450000,0.192029
780.637315,1.675000,0.320887
780.670811,0.150000,0.114564
780.704306,-0.150000,0.025000
780.737802,0.100000,0.061237
780.771297,-0.150000,0.055902
780.804792,0.225000,0.147373
780.838287,0.050000,0.114564
780.871781,-0.175000,0.041458
780.905276,-0.250000,0.108972
780.938770,-0.300000,0.050000
780.972263,-0.100000,0.035355
781.005757,0.050000,0.055902
781.039250,0.200000,0.111803
781.072743,0.175000,0.054486
781.106235,-0.075000,0.064952
781.139728,-0.050000,0.025000
781.173220,0.125000,0.073951
781.206712,0.150000,0.025000
781.240203,-0.100000,0.070711
781.273694,-0.125000,0.089268
781.307185,0.125000,0.064952
781.340676,0.175000,0.108253
781.374167,-0.100000,0.000000
781.407657,0.175000,0.041458
781.441147,0.150000,0.103078
781.474636,-0.025000,0.064952
781.508126,-0.175000,0.064952
781.541615,0.050000,0.055902
781.575104,-0.125000,0.021651
781.608593,0.125000,0.255869
781.642081,-0.050000,0.025000
781.675569,-0.125000,0.089268
781.709057,0.100000,0.111803
781.742544,0.325000,0.096014
781.776032,0.225000,0.129301
781.809519,0.000000,0.035355
781.843006,0.400000,0.145774
781.876492,-0.050000,0.103078
781.909978,0.175000,0.129301
781.943464,0.150000,0.055902
781.976950,0.225000,0.021651
782.010435,-0.075000,0.113880
782.043921,0.000000,0.061237
782.077406,0.025000,0.021651
782.110890,0.125000,0.041458
782.144375,-0.050000,0.134629
782.177859,0.175000,0.119242
782.211343,0.050000,0.075000
782.244826,1.475000,0.389511
782.278309,2.600000,0.486056
782.311792,3.950000,0.693271
782.345275,6.050000,0.601560
782.378758,4.825000,1.021870
782.412240,2.075000,0.541266
782.445722,0.700000,0.340955
782.479204,0.625000,0.255869
782.512685,-0.025000,0.178098
782.546166,0.125000,0.089268
782.579647,0.050000,0.129904
782.613128,0.300000,0.212132
782.646608,0.275000,0.306951
782.680088,0.150000,0.134629
782.713568,-0.175000,0.138632
782.747048,0.225000,0.041458
782.780527,-0.250000,0.055902
782.814006,-0.250000,0.043301
782.847485,-0.025000,0.102317
782.880963,-0.175000,0.089268
782.914442,-0.175000,0.081968
782.947920,-0.125000,0.089268
782.981397,0.150000,0.025000
783.014875,0.125000,0.041458
783.048352,0.200000,0.322102
783.081829,-0.075000,0.041458
783.115306,0.075000,0.108253
783.148782,-0.100000,0.086603
783.182258,-0.350000,0.055902
783.215734,0.150000,0.114564
783.249209,-0.325000,0.089268
783.282685,0.175000,0.041458
783.316160,0.025000,0.064952
783.349635,0.200000,0.206155
783.383109,0.000000,0.527968
783.416583,-0.200000,0.106066
783.450057,0.000000,0.111803
783.483531,-0.200000,0.035355
783.517004,0.225000,0.113880
783.550477,-0.075000,0.041458
783.583950,0.375000,0.188331
783.617423,0.400000,0.165831
783.650895,0.300000,0.127475
783.684367,-0.050000,0.090139
783.717839,-0.300000,0.183712
783.751311,-0.225000,0.041458
783.784782,0.075000,0.102317
783.818253,0.075000,0.124373
783.851724,0.325000,0.096014
783.885194,0.200000,0.154110
783.918665,-0.100000,0.035355
783.952134,0.175000,0.041458
783.985604,0.225000,0.167239
784.019074,0.050000,0.167705
784.052543,-0.025000,0.073951
784.086012,1.125000,0.608661
784.119480,2.625000,0.788491
784.152948,3.700000,0.619476
784.186416,7.500000,0.688295
784.219884,7.275000,1.330590
784.253352,2.400000,0.806226
784.286819,1.075000,0.276981
784.320286,0.350000,0.103078
784.353753,0.150000,0.147902
784.387219,0.500000,0.276134
784.420685,0.075000,0.124373
784.454151,0.200000,0.254951
784.487617,-0.150000,0.143614
784.521082,-0.025000,0.089268
784.554547,0.300000,0.035355
784.588012,-0.175000,0.054486
784.621477,0.125000,0.081968
784.654941,-0.000000,0.093541
784.688405,0.300000,0.061237
784.721869,0.225000,0.138632
784.755332,0.200000,0.220794
784.788795,0.100000,0.145774
784.822258,0.150000,0.103078
784.855721,0.150000,0.082916
784.889183,0.000000,0.079057
784.922646,-0.075000,0.021651
784.956107,0.375000,0.151554
784.989569,-0.100000,0.154110
785.023030,0.175000,0.155624
785.056491,0.275000,0.073951
785.089952,0.275000,0.155624
785.123413,-0.150000,0.082916
785.156873,-0.175000,0.113880
785.190333,0.650000,0.241091
785.223792,0.250000,0.055902
785.257252,0.100000,0.061237
785.290711,0.200000,0.231840
785.324170,-0.075000,0.073951
785.357629,0.225000,0.369755
785.391087,-0.025000,0.041458
785.424545,0.025000,0.054486
785.458003,-0.075000,0.064952
785.491460,-0.075000,0.073951
785.524918,0.200000,0.070711
785.558375,0.075000,0.041458
785.591831,0.175000,0.096014
785.625288,0.300000,0.293684
785.658744,0.050000,0.055902
785.692200,-0.200000,0.035355
785.725655,0.325000,0.147373
785.759111,0.100000,0.061237
785.792566,0.275000,0.224653
785.826021,0.175000,0.041458
785.859475,-0.000000,0.217945
785.892930,0.900000,0.247487
785.926384,0.725000,0.194856
785.959837,2.725000,0.534293
785.993291,5.533333,0.227303
786.026744,6.633333,0.728297
786.060197,8.875000,0.784518
786.093649,2.325000,0.457404
786.127102,0.175000,0.108253
786.160554,0.100000,0.061237
786.194006,-0.050000,0.055902
786.227457,0.450000,0.134629
786.260909,0.075000,0.064952
786.294360,0.050000,0.043301
786.327810,-0.275000,0.081968
786.361261,0.050000,0.075000
786.394711,0.075000,0.155624
786.428161,-0.100000,0.070711
786.461611,0.025000,0.041458
786.495060,-0.100000,0.050000
786.528509,0.225000,0.216145
786.561958,0.300000,0.242384
786.595407,0.350000,0.129904
786.628855,0.125000,0.041458
786.662303,-0.200000,0.100000
786.695751,0.175000,0.129301
786.729198,0.125000,0.129301
786.762645,0.250000,0.167705
786.796092,0.175000,0.134048
786.829539,0.425000,0.238157
786.862985,-0.225000,0.064952
786.896431,0.000000,0.145774
786.929877,0.525000,0.265460
786.963323,0.075000,0.073951
786.996768,0.075000,0.348882
787.030213,-0.100000,0.050000
787.063658,-0.150000,0.055902
787.097102,0.200000,0.127475
787.130547,-0.275000,0.167239
787.163991,-0.050000,0.152069
787.197434,-0.325000,0.089268
787.230878,0.350000,0.103078
787.264321,0.275000,0.285865
787.297764,-0.175000,0.054486
787.331206,0.000000,0.061237
787.364648,0.000000,0.111803
787.398090,0.125000,0.102317
787.431532,0.100000,0.035355
787.464974,0.075000,0.134048
787.498415,0.075000,0.320887
787.531856,-0.100000,0.050000
787.565296,-0.225000,0.064952
787.598737,0.725000,0.265460
787.632177,0.300000,0.093541
787.665617,-0.250000,0.025000
787.699056,0.400000,0.190394
787.732496,-0.175000,0.163459
787.765935,0.350000,0.143614
787.799373,2.450000,0.182003
787.832812,5.650000,0.577170
787.866250,8.900000,1.374773
787.899688,8.225000,0.961363
787.933126,3.700000,0.393700
787.966563,1.550000,0.213600
788.000000,0.675000,0.283670
788.033437,0.075000,0.124373
788.066873,-0.125000,0.089268
788.100310,-0.025000,0.021651
788.133746,0.075000,0.096014
788.167181,0.025000,0.021651
788.200617,0.175000,0.201168
788.234052,0.075000,0.041458
788.267487,0.025000,0.124373
788.300921,0.175000,0.238157
788.334356,0.350000,0.167705
788.367790,0.025000,0.064952
788.401224,-0.050000,0.043301
788.434657,-0.100000,0.106066
788.468090,0.075000,0.108253
788.501523,0.400000,0.162019
788.534956,0.000000,0.150000
788.568389,0.100000,0.122474
788.601821,0.125000,0.108253
788.635253,0.025000,0.119242
788.668684,-0.025000,0.096014
788.702116,-0.075000,0.054486
788.735547,-0.075000,0.089268
788.768977,0.075000,0.041458
788.802408,0.025000,0.073951
788.835838,0.000000,0.070711
788.869268,0.075000,0.064952
788.902698,-0.150000,0.043301
788.936127,-0.225000,0.041458
788.969556,0.325000,0.119242
789.002985,0.250000,0.090139
789.036414,0.725000,0.296595
789.069842,0.200000,0.165831
789.103270,0.175000,0.021651
789.136698,0.300000,0.100000
789.170125,0.050000,0.075000
789.203552,0.275000,0.102317
789.236979,0.275000,0.081968
789.270406,0.075000,0.213234
789.303832,0.200000,0.237171
789.337258,-0.025000,0.073951
789.370684,0.075000,0.184983
789.404110,0.050000,0.075000
789.437535,0.200000,0.079057
789.470960,0.025000,0.021651
789.504385,0.075000,0.102317
789.537809,0.225000,0.143069
789.571233,0.300000,0.079057
789.604657,0.275000,0.096014
789.638081,1.550000,0.292617
789.671504,5.150000,1.023780
789.704927,11.075000,1.537195
789.738350,11.825000,0.494185
789.771772,7.166667,1.197045
789.805195,4.650000,0.671286
789.838617,0.525000,0.081968
789.872038,0.575000,0.178098
789.905460,-0.575000,0.081968
789.938881,0.100000,0.183712
789.972302,-0.175000,0.054486
790.005722,0.375000,0.219018
790.039143,-0.125000,0.147373
790.072563,0.325000,0.188331
790.105982,0.150000,0.103078
790.139402,0.150000,0.082916
790.172821,-0.125000,0.089268
790.206240,0.125000,0.147373
790.239658,0.175000,0.089268
790.273077,0.250000,0.103078
790.306495,-0.250000,0.075000
790.339913,0.300000,0.145774
790.373330,0.250000,0.134629
790.406747,0.250000,0.227761
790.440164,0.225000,0.108253
790.473581,0.050000,0.103078
790.506997,0.075000,0.089268
790.540414,0.050000,0.075000
790.573829,0.050000,0.055902
790.607245,0.025000,0.081968
790.640660,0.150000,0.163936
790.674075,0.425000,0.227418
790.707490,-0.075000,0.089268
790.740904,0.175000,0.102317
790.774319,0.025000,0.021651
790.807733,0.150000,0.134629
790.841146,-0.025000,0.073951
790.874560,-0.225000,0.064952
790.907973,0.075000,0.041458
790.941385,0.300000,0.050000
790.974798,0.250000,0.103078
791.008210,-0.000000,0.093541
791.041622,-0.225000,0.073951
791.075034,0.175000,0.155624
791.108445,-0.100000,0.079057
791.141856,0.150000,0.075000
791.175267,0.250000,0.419076
791.208678,0.125000,0.073951
791.242088,0.075000,0.064952
791.275498,-0.050000,0.108972
791.308908,0.175000,0.113880
791.342317,0.025000,0.054486
791.375726,0.225000,0.198037
791.409135,0.400000,0.136931
791.442544,0.125000,0.113880
791.475952,1.525000,0.361205
791.509360,2.950000,0.512957
791.542768,9.725000,0.690448
791.576176,13.600000,1.019191
791.609583,19.825000,0.871332
791.642990,12.433333,2.086364
791.676396,5.775000,1.057931
791.709803,1.450000,0.402337
791.743209,0.300000,0.259808
791.776615,0.375000,0.147373
791.810020,0.225000,0.113880
791.843425,0.000000,0.070711
791.876830,-0.625000,0.041458
791.910235,0.175000,0.054486
791.943640,-0.250000,0.025000
791.977044,0.050000,0.103078
792.010448,0.125000,0.081968
792.043851,0.000000,0.061237
792.077254,-0.025000,0.064952
792.110658,0.050000,0.114564
792.144060,-0.025000,0.054486
792.177463,0.000000,0.117260
792.210865,0.000000,0.035355
792.244267,0.075000,0.041458
792.277668,0.150000,0.114564
792.311070,0.000000,0.070711
792.344471,0.400000,0.035355
792.377872,0.275000,0.096014
792.411272,-0.025000,0.021651
792.444672,0.150000,0.082916
792.478072,-0.100000,0.061237
792.511472,-0.075000,0.138632
792.544871,0.625000,0.143069
792.578271,0.625000,0.302851
792.611669,0.100000,0.070711
792.645068,0.300000,0.145774
792.678466,-0.275000,0.054486
792.711864,0.000000,0.093541
792.745262,-0.075000,0.021651
792.778659,-0.200000,0.035355
792.812056,-0.025000,0.096014
792.845453,0.275000,0.073951
792.878850,0.300000,0.093541
792.912246,0.675000,0.314990
792.945642,-0.100000,0.061237
792.979038,0.200000,0.035355
793.012433,0.100000,0.106066
793.045829,0.150000,0.219374
793.079223,0.300000,0.493710
793.112618,-0.175000,0.073951
793.146012,0.425000,0.096014
793.179406,-0.175000,0.041458
793.212800,-0.175000,0.041458
793.246194,0.175000,0.221853
793.279587,0.200000,0.061237
793.312980,0.575000,0.138632
793.346373,0.175000,0.184983
793.379765,2.650000,0.503115
793.413157,10.075000,0.434993
793.446549,17.275000,0.521266
793.479940,19.433333,0.806484
793.513332,15.625000,0.695858
793.546723,5.350000,0.815858
793.580113,2.575000,0.054486
793.613504,0.275000,0.147373
793.646894,-0.225000,0.073951
793.680284,0.100000,0.035355
793.713673,0.475000,0.332368
793.747062,0.625000,0.389511
793.780451,-0.025000,0.064952
793.813840,0.200000,0.061237
793.847228,0.000000,0.035355
793.880617,0.000000,0.127475
793.914004,0.325000,0.041458
793.947392,-0.175000,0.041458
793.980779,-0.100000,0.070711
794.014166,-0.200000,0.117260
794.047553,0.100000,0.061237
794.080940,0.250000,0.075000
794.114326,0.000000,0.127475
794.147712,0.150000,0.134629
794.181097,-0.000000,0.093541
794.214483,0.300000,0.079057
794.247868,0.375000,0.124373
794.281252,-0.025000,0.073951
794.314637,0.075000,0.368061
794.348021,0.225000,0.204252
794.381405,-0.075000,0.138632
794.414788,0.075000,0.054486
794.448172,0.275000,0.064952
794.481555,0.150000,0.114564
794.514938,0.200000,0.035355
794.548320,-0.050000,0.043301
794.581702,0.025000,0.081968
794.615084,0.250000,0.163936
794.648466,0.025000,0.134048
794.681847,0.100000,0.035355
794.715228,-0.125000,0.108253
794.748609,0.275000,0.399022
794.781990,0.250000,0.216506
794.815370,0.900000,0.358818
794.848750,-0.475000,0.138632
794.882129,-0.400000,0.035355
794.915509,0.025000,0.113880
794.948888,-0.050000,0.251247
794.982267,0.075000,0.073951
795.015645,-0.150000,0.075000
795.049023,0.275000,0.124373
795.082401,0.025000,0.096014
795.115779,0.200000,0.196850
795.149156,0.225000,0.163459
795.182534,0.425000,0.155624
795.215910,0.250000,0.043301
795.249287,1.825000,0.191621
795.282663,6.475000,0.364649
795.316039,20.000000,1.612064
795.349415,26.233333,0.665520
795.382790,24.733333,1.177568
795.416165,14.900000,2.415316
795.449540,4.150000,0.340037
795.482915,1.500000,0.254951
795.516289,0.125000,0.041458
795.549663,-0.075000,0.096014
795.583037,-0.050000,0.075000
795.616410,0.225000,0.163459
795.649783,0.050000,0.134629
795.683156,-0.075000,0.021651
795.716529,0.150000,0.025000
795.749901,-0.300000,0.100000
795.783273,0.550000,0.090139
795.816645,-0.050000,0.103078
795.850016,0.100000,0.154110
795.883387,0.075000,0.064952
795.916758,0.200000,0.070711
795.950129,0.150000,0.317214
795.983499,0.150000,0.160078
796.016869,-0.050000,0.201556
796.050239,-0.375000,0.170935
796.083608,0.075000,0.081968
796.116977,-0.025000,0.108253
796.150346,-0.325000,0.073951
796.183714,0.050000,0.103078
796.217083,0.125000,0.073951
796.250451,-0.100000,0.070711
796.283818,-0.125000,0.064952
796.317186,-0.050000,0.163936
796.350553,-0.000000,0.086603
796.383920,-0.350000,0.025000
796.417286,0.500000,0.176777
796.450653,-0.125000,0.081968
796.484019,0.250000,0.114564
796.517384,-0.150000,0.025000
796.550750,-0.050000,0.025000
796.584115,0.000000,0.035355
796.617480,0.050000,0.125000
796.650844,-0.000000,0.093541
796.684209,0.250000,0.043301
796.717573,-0.100000,0.035355
796.750936,0.200000,0.154110
796.784300,0.375000,0.326678
796.817663,-0.225000,0.041458
796.851026,-0.075000,0.041458
796.884388,-0.225000,0.102317
796.917751,0.225000,0.081968
796.951113,-0.100000,0.145774
796.984474,-0.025000,0.096014
797.017836,0.100000,0.061237
797.051197,0.100000,0.093541
797.084558,-0.375000,0.021651
797.117918,0.275000,0.096014
797.151279,1.675000,0.341641
797.184639,7.300000,0.388909
797.217998,19.533333,0.735980
797.251358,23.600000,2.461453
797.284717,19.675000,1.021258
797.318076,7.166667,0.159426
797.351434,3.125000,0.586702
797.384793,0.900000,0.348210
797.418151,0.675000,0.255869
797.451508,0.125000,0.073951
797.484866,-0.125000,0.054486
797.518223,0.175000,0.021651
797.551580,0.050000,0.143614
797.584936,-0.125000,0.054486
797.618292,-0.150000,0.114564
797.651648,-0.075000,0.081968
797.685004,0.175000,0.134048
797.718360,0.200000,0.050000
797.751715,0.075000,0.054486
797.785069,0.375000,0.155624
797.818424,-0.125000,0.064952
797.851778,-0.175000,0.073951
797.885132,-0.400000,0.117260
797.918486,0.250000,0.114564
797.951839,-0.125000,0.198037
797.985192,0.050000,0.025000
798.018545,0.375000,0.285865
798.051898,0.075000,0.073951
798.085250,0.225000,0.227418
798.118602,0.150000,0.114564
798.151954,-0.300000,0.127475
798.185305,-0.200000,0.079057
798.218656,0.000000,0.079057
798.252007,0.300000,0.127475
798.285357,0.225000,0.081968
798.318708,-0.125000,0.073951
798.352057,0.075000,0.081968
798.385407,0.175000,0.054486
798.418756,-0.100000,0.061237
798.452106,-0.050000,0.025000
798.485454,0.025000,0.147373
798.518803,0.275000,0.081968
798.552151,-0.100000,0.035355
798.585499,0.250000,0.055902
798.618847,0.025000,0.096014
798.652194,0.100000,0.035355
798.685541,0.325000,0.073951
798.718888,0.000000,0.127475
798.752234,0.350000,0.364863
798.785580,0.325000,0.041458
798.818926,0.075000,0.096014
798.852272,0.250000,0.225000
798.885617,-0.275000,0.041458
798.918962,0.175000,0.073951
798.952307,0.400000,0.266927
798.985651,0.575000,0.184983
799.018996,0.500000,0.136931
799.052339,2.325000,0.253414
799.085683,8.950000,0.593191
799.119026,20.533333,1.381274
799.152369,31.233333,1.302082
799.185712,24.575000,2.133183
799.219054,9.033333,0.818790
799.252397,2.425000,0.476150
799.285738,0.275000,0.041458
799.319080,-0.075000,0.113880
799.352421,0.425000,0.213234
799.385762,0.075000,0.041458
799.419103,0.250000,0.134629
799.452443,0.050000,0.075000
799.485783,0.000000,0.035355
799.519123,0.025000,0.041458
799.552463,-0.075000,0.096014
799.585802,0.175000,0.129301
799.619141,0.000000,0.079057
799.652480,-0.300000,0.061237
799.685818,-0.050000,0.188746
799.719156,0.075000,0.021651
799.752494,0.275000,0.041458
799.785831,0.100000,0.111803
799.819169,-0.075000,0.041458
799.852506,0.100000,0.237171
799.885842,0.025000,0.073951
799.919179,-0.200000,0.093541
799.952515,0.150000,0.103078
799.985850,0.000000,0.035355
800.019186,0.175000,0.134048
800.052521,0.250000,0.114564
800.085856,0.275000,0.238157
800.119191,0.250000,0.167705
800.152525,0.025000,0.073951
800.185859,0.225000,0.096014
800.219193,0.575000,0.332368
800.252526,0.275000,0.041458
800.285859,0.150000,0.043301
800.319192,0.300000,0.226385
800.352525,0.375000,0.267804
800.385857,-0.050000,0.134629
800.419189,0.200000,0.061237
800.452521,0.325000,0.263095
800.485852,0.175000,0.113880
800.519183,-0.425000,0.054486
800.552514,-0.225000,0.147373
800.585844,-0.475000,0.221853
800.619175,0.625000,0.279229
800.652505,0.475000,0.221853
800.685834,0.075000,0.021651
800.719164,-0.075000,0.064952
800.752493,0.275000,0.147373
800.785821,0.325000,0.124373
800.819150,-0.250000,0.055902
800.852478,0.100000,0.035355
800.885806,-0.050000,0.108972
800.919134,0.525000,0.170935
800.952461,2.425000,0.797947
800.985788,8.500000,1.237437
801.019115,32.233333,0.656061
801.052441,62.850000,1.450216
801.085767,58.100000,1.484082
801.119093,25.525000,1.217772
801.152419,7.950000,0.449305
801.185744,2.625000,0.592004
801.219069,0.500000,0.362284
801.252394,0.500000,0.379144
801.285718,0.300000,0.247487
801.319042,0.125000,0.089268
801.352366,0.225000,0.369755
801.385690,-0.125000,0.081968
801.419013,-0.525000,0.064952
801.452336,0.500000,0.257391
801.485658,0.100000,0.333542
801.518981,0.325000,0.073951
801.552303,0.000000,0.117260
801.585625,0.150000,0.143614
801.618946,-0.150000,0.114564
801.652267,-0.275000,0.041458
801.685588,0.075000,0.089268
801.718909,0.375000,0.243349
801.752229,0.575000,0.178098
801.785549,0.200000,0.203101
801.818869,-0.025000,0.073951
801.852188,-0.375000,0.021651
801.885507,0.250000,0.114564
801.918826,0.500000,0.318198
801.952145,-0.250000,0.075000
801.985463,-0.125000,0.096014
802.018781,0.350000,0.090139
802.052099,0.150000,0.103078
802.085416,0.175000,0.124373
802.118733,0.325000,0.143069
802.152050,0.075000,0.054486
802.185366,0.125000,0.054486
802.218683,0.000000,0.035355
802.251999,0.075000,0.129301
802.285314,-0.450000,0.114564
802.318630,0.450000,0.188746
802.351945,0.025000,0.113880
802.385259,-0.025000,0.064952
802.418574,0.050000,0.055902
802.451888,0.175000,0.064952
802.485202,0.200000,0.061237
802.518515,-0.025000,0.178098
802.551829,0.050000,0.075000
802.585142,0.275000,0.163459
802.618454,0.275000,0.167239
802.651767,0.225000,0.073951
802.685079,-0.350000,0.207666
802.718391,0.150000,0.129904
802.751702,0.025000,0.194856
802.785013,0.150000,0.043301
802.818324,0.350000,0.163936
802.851635,0.700000,0.325960
802.884945,1.775000,0.326678
802.918255,12.950000,1.020110
802.951565,42.200000,2.015254
802.984874,68.000000,2.093442
803.018184,46.066667,2.202934
803.051492,17.050000,1.223979
803.084801,2.550000,0.241091
803.118109,1.300000,0.425735
803.151417,-0.300000,0.093541
803.184725,0.800000,0.257391
803.218032,0.275000,0.198037
803.251339,0.650000,0.592136
803.284646,0.300000,0.176777
803.317953,0.225000,0.108253
803.351259,-0.375000,0.119242
803.384565,-0.075000,0.147373
803.417870,-0.075000,0.064952
803.451176,0.275000,0.129301
803.484481,0.125000,0.113880
803.517786,0.250000,0.043301
803.551090,0.025000,0.064952
803.584394,-0.025000,0.178098
803.617698,-0.100000,0.176777
803.651002,0.125000,0.113880
803.684305,0.325000,0.210283
803.717608,0.175000,0.267804
803.750910,-0.225000,0.073951
803.784213,0.400000,0.176777
803.817515,0.125000,0.054486
803.850817,0.325000,0.124373
803.884118,0.425000,0.310996
803.917419,0.175000,0.041458
803.950720,0.425000,0.279229
803.984021,0.575000,0.216145
804.017321,0.700000,0.492443
804.050621,0.025000,0.198037
804.083921,-0.025000,0.081968
804.117220,0.050000,0.108972
804.150519,0.125000,0.138632
804.183818,0.250000,0.114564
804.217117,0.150000,0.447912
804.250415,0.100000,0.111803
804.283713,0.325000,0.138632
804.317011,0.175000,0.181573
804.350308,-0.050000,0.055902
804.383605,0.225000,0.224653
804.416902,0.350000,0.182003
804.450198,0.300000,0.269258
804.483494,0.225000,0.138632
804.516790,0.775000,0.163459
804.550086,0.700000,0.229129
804.583381,-0.125000,0.201168
804.616676,0.025000,0.041458
804.649971,0.150000,0.114564
804.683265,0.200000,0.117260
804.716559,-0.325000,0.113880
804.749853,0.125000,0.081968
804.783146,0.450000,0.311247
804.816440,2.825000,0.549289
804.849732,17.500000,1.150000
804.883025,55.833333,0.708284
804.916317,79.125000,2.071345
804.949609,45.866667,2.943920
804.982901,15.125000,0.624875
805.016192,4.050000,0.675925
805.049484,0.575000,0.294480
805.082774,-0.400000,0.070711
805.116065,0.100000,0.100000
805.149355,0.425000,0.248433
805.182645,0.225000,0.108253
805.215935,0.175000,0.129301
805.249224,0.225000,0.124373
805.282513,-0.250000,0.075000
805.315802,0.200000,0.061237
805.349090,0.450000,0.129904
805.382378,0.075000,0.054486
805.415666,-0.125000,0.041458
805.448954,0.625000,0.143069
805.482241,0.250000,0.195256
805.515528,0.550000,0.456207
805.548815,0.350000,0.160078
805.582101,0.200000,0.050000
805.615387,0.175000,0.073951
805.648673,0.175000,0.224653
805.681958,-0.075000,0.081968
805.715243,0.750000,0.317214
805.748528,0.150000,0.103078
805.781813,0.025000,0.064952
805.815097,0.350000,0.103078
805.848381,-0.375000,0.138632
805.881665,-0.100000,0.162019
805.914948,0.375000,0.064952
805.948231,-0.175000,0.081968
805.981514,-0.050000,0.163936
806.014796,0.150000,0.108972
806.048079,0.600000,0.322102
806.081360,0.350000,0.364863
806.114642,0.275000,0.073951
806.147923,0.425000,0.194856
806.181204,0.400000,0.348210
806.214485,0.325000,0.290205
806.247765,0.525000,0.232849
806.281046,0.100000,0.106066
806.314325,0.175000,0.163459
806.347605,0.675000,0.240767
806.380884,-0.525000,0.108253
806.414163,0.550000,0.090139
806.447441,0.500000,0.079057
806.480720,0.150000,0.075000
806.513998,0.250000,0.055902
806.547275,0.550000,0.201556
806.580553,0.275000,0.113880
806.613830,0.200000,0.215058
806.647107,0.525000,0.320887
806.680383,0.525000,0.021651
806.713659,0.750000,0.178536
806.746935,3.375000,0.379761
806.780211,21.900000,0.675463
806.813486,82.725000,1.292466
806.846761,143.025000,4.403603
806.880036,94.033333,0.133853
806.913310,29.825000,0.420379
806.946584,5.850000,0.815858
806.979858,1.175000,0.415895
807.013132,0.950000,0.235850
807.046405,0.000000,0.000000
807.079678,0.600000,0.220794
807.112951,0.625000,0.334244
807.146223,-0.100000,0.154110
807.179495,0.275000,0.255869
807.212767,-0.550000,0.134629
807.246038,0.250000,0.152069
807.279309,0.000000,0.061237
807.312580,0.350000,0.283945
807.345850,-0.025000,0.207289
807.379121,0.075000,0.210283
807.412390,0.250000,0.134629
807.445660,-0.175000,0.041458
807.478929,0.150000,0.075000
807.512198,0.300000,0.093541
807.545467,0.325000,0.155624
807.578735,0.575000,0.392707
807.612004,-0.525000,0.224653
807.645271,0.225000,0.188331
807.678539,-0.425000,0.041458
807.711806,0.925000,0.302851
807.745073,0.075000,0.064952
807.778340,0.750000,0.317214
807.811606,0.825000,0.357727
807.844872,0.225000,0.081968
807.878138,0.175000,0.147373
807.911403,0.175000,0.134048
807.944668,0.450000,0.207666
807.977933,0.350000,0.160078
808.011197,0.275000,0.224653
808.044462,0.100000,0.176777
808.077725,0.200000,0.079057
808.110989,-0.075000,0.041458
808.144252,0.375000,0.119242
808.177515,0.525000,0.163459
808.210778,0.150000,0.219374
808.244040,0.050000,0.043301
808.277302,-0.050000,0.055902
808.310564,0.625000,0.352447
808.343826,0.575000,0.364649
808.377087,0.250000,0.182003
808.410348,0.525000,0.163459
808.443608,0.025000,0.021651
808.476869,-0.200000,0.093541
808.510129,0.325000,0.402143
808.543388,0.100000,0.196850
808.576648,0.025000,0.124373
808.609907,0.900000,0.577711
808.643165,0.300000,0.325960
808.676424,1.150000,0.292617
808.709682,8.225000,0.464186
808.742940,52.433333,1.159921
808.776197,156.400000,2.665286
808.809455,191.625000,3.478393
808.842712,76.150000,2.350133
808.875968,11.366667,0.207163
808.909225,1.975000,0.814996
808.942481,1.150000,0.182003
808.975736,0.575000,0.354216
809.008992,0.750000,0.712829
809.042247,0.100000,0.061237
809.075502,-0.325000,0.089268
809.108756,-0.500000,0.379144
809.142011,0.225000,0.113880
809.175265,0.250000,0.114564
809.208518,0.825000,0.542419
809.241772,0.850000,0.506828
809.275025,0.850000,0.477624
809.308277,0.375000,0.198037
809.341530,0.050000,0.082916
809.374782,0.925000,0.494185
809.408034,0.025000,0.089268
809.441285,-0.225000,0.155624
809.474536,0.225000,0.628863
809.507787,-0.050000,0.175000
809.541038,0.375000,0.174553
809.574288,0.175000,0.243349
809.607538,0.050000,0.114564
809.640788,0.450000,0.408503
809.674037,0.700000,0.325960
809.707286,-0.025000,0.041458
809.740535,0.650000,0.343693
809.773783,0.200000,0.136931
809.807032,-0.050000,0.160078
809.840279,-0.575000,0.143069
809.873527,-0.125000,0.198037
809.906774,0.475000,0.167239
809.940021,0.500000,0.367423
809.973268,0.375000,0.213234
810.006514,0.200000,0.079057
810.039760,0.425000,0.124373
810.073006,0.725000,0.343466
810.106251,0.325000,0.167239
810.139497,0.125000,0.073951
810.172741,1.050000,0.349106
810.205986,0.075000,0.054486
810.239230,0.225000,0.474835
810.272474,1.200000,0.291548
810.305718,0.533333,0.194722
810.338961,-0.325000,0.298695
810.372204,-0.275000,0.320887
810.405447,-0.750000,0.325000
810.438689,0.275000,0.224653
810.471931,0.625000,0.198037
810.505173,0.500000,0.111803
810.538414,0.575000,0.041458
810.571656,0.100000,0.234521
810.604897,0.475000,0.163459
810.638137,2.900000,0.728011
810.671377,18.575000,0.361205
810.704617,128.675000,1.703443
810.737857,369.875000,3.833956
810.771096,356.150000,10.501815
810.804335,132.575000,2.583935
810.837574,19.025000,1.271011
810.870813,2.975000,0.637745
810.904051,0.225000,0.073951
810.937288,0.675000,0.201168
810.970526,0.875000,0.054486
811.003763,-0.100000,0.327872
811.037000,0.225000,0.324760
811.070237,0.200000,0.473022
811.103473,-0.100000,0.150000
811.136709,0.150000,0.261008
811.169945,0.075000,0.147373
811.203180,0.425000,0.285865
811.236415,0.525000,0.240767
811.269650,-0.025000,0.181573
811.302884,0.075000,0.188331
811.336119,0.550000,0.541410
811.369352,0.150000,0.134629
811.402586,0.700000,0.117260
811.435819,0.133333,0.867708
811.469052,2.150000,0.766078
811.502285,-0.900000,0.519615
811.535517,-0.475000,0.330483
811.568749,-0.100000,0.215058
811.601981,0.900000,0.544289
811.635212,-0.125000,0.267804
811.668443,1.025000,0.263095
811.701674,0.725000,0.230149
811.734905,-0.125000,0.129301
811.768135,0.325000,0.523659
811.801365,0.125000,0.113880
811.834594,0.125000,0.113880
811.867824,-0.025000,0.178098
811.901053,-0.300000,0.150000
811.934281,0.075000,0.389511
811.967510,0.200000,0.154110
812.000738,0.025000,0.216145
812.033965,0.100000,0.176777
812.067193,0.300000,0.150000
812.100420,0.050000,0.043301
812.133647,-0.225000,0.102317
812.166873,-0.575000,0.096014
812.200099,0.875000,0.394295
812.233325,-0.175000,0.064952
812.266551,0.200000,0.196850
812.299776,0.350000,0.143614
812.333001,0.500000,0.318198
812.366226,0.325000,0.366359
812.399450,0.275000,0.198037
812.432674,0.150000,0.152069
812.465898,-0.100000,0.093541
812.499121,-0.150000,0.055902
812.532345,0.025000,0.155624
812.565567,0.300000,0.086603
812.598790,0.600000,0.117260
812.632012,4.500000,0.568990
812.665234,31.800000,1.347683
812.698456,142.225000,3.619284
812.731677,175.800000,3.474011
812.764898,66.150000,1.949840
812.798119,12.500000,1.162433
812.831339,2.075000,0.341641
812.864559,0.375000,0.155624
812.897779,0.475000,0.248433
812.930998,0.250000,0.114564
812.964217,0.125000,0.113880
812.997436,-0.200000,0.079057
813.030655,-0.125000,0.096014
813.063873,-0.025000,0.124373
813.097091,-0.150000,0.055902
813.130308,-0.500000,0.050000
813.163526,0.425000,0.350669
813.196743,0.050000,0.134629
813.229959,0.275000,0.108253
813.263176,0.325000,0.201168
813.296392,-0.175000,0.054486
813.329607,-0.075000,0.096014
813.362823,0.225000,0.151554
813.396038,-0.100000,0.061237
813.429253,-0.025000,0.073951
813.462467,-0.225000,0.073951
813.495682,-0.100000,0.127475
813.528895,0.275000,0.124373
813.562109,0.025000,0.041458
813.595322,-0.050000,0.075000
813.628535,0.325000,0.207289
813.661748,-0.200000,0.050000
813.694960,0.025000,0.170935
813.728172,0.025000,0.181573
813.761384,-0.025000,0.073951
813.794596,-0.375000,0.064952
813.827807,-0.350000,0.108972
813.861017,-0.100000,0.000000
813.894228,-0.025000,0.124373
813.927438,0.325000,0.174553
813.960648,0.050000,0.025000
813.993858,-0.225000,0.041458
814.027067,0.250000,0.303109
814.060276,-0.150000,0.103078
814.093485,-0.225000,0.089268
814.126693,-0.275000,0.124373
814.159901,-0.325000,0.041458
814.193109,-0.425000,0.064952
814.226316,0.225000,0.198037
814.259523,-0.075000,0.041458
814.292730,0.175000,0.188331
814.325936,0.450000,0.125000
814.359143,0.125000,0.198037
814.392348,0.100000,0.079057
814.425554,0.025000,0.204252
814.458759,0.100000,0.206155
814.491964,0.200000,0.419821
814.525169,0.450000,0.219374
814.558373,-0.125000,0.021651
814.591577,-0.025000,0.124373
814.624781,0.075000,0.221853
814.657984,0.350000,0.160078
