#{
#    "background_file": "Backgrounds\\\\bg_787.999nm_16bin_197st_244en_10.0s_110g_4x_1_seq.txt",
#    "ccd_image_settings": [
#        1,
#        16,
#        1,
#        1600,
#        197,
#        244
#    ],
#    "ccd_temperature": "-88",
#    "cdRatios": {
#        "mean": 0.9201851781028619,
#        "std": 0.00600234560756625
#    },
#    "center_lambda": 788.0,
#    "comments": "",
#    "dark_region": 0.26089196864184244,
#    "date": "11/17/19 14:32:58PM",
#    "eff_field": 1.5,
#    "exposure": 10.0,
#    "fel_lambda": "15.0",
#    "fel_pol": "H",
#    "fel_pulses": 41,
#    "fel_pyro_cal": "0.017",
#    "fel_reprate": "1.07",
#    "fel_transmission": "1.0",
#    "fel_transmission_fits": {
#        "A": 1.0,
#        "C": 0.0,
#        "Mu": 0.0
#    },
#    "fieldInt": {
#        "mean": 9617.664460227274,
#        "std": 367.11439312297756
#    },
#    "fieldStrength": {
#        "mean": 44.98721212121212,
#        "std": 0.871636620428335
#    },
#    "fpTime": {
#        "mean": 1.2200586859059608,
#        "std": 0.07075000578541664
#    },
#    "gain": 110,
#    "grating": 3,
#    "images_in_sequence": [
#        "hsg_SpotD_crystal16_an45_HAna149.txt",
#        "hsg_SpotD_crystal16_an45_HAna150.txt",
#        "hsg_SpotD_crystal16_an45_HAna151.txt",
#        "hsg_SpotD_crystal16_an45_HAna152.txt"
#    ],
#    "nir_lambda": "820.9918",
#    "nir_pola": "-45",
#    "nir_polg": "0",
#    "nir_power": "100.0",
#    "pulseEnergies": {
#        "mean": 2.096742424242424,
#        "std": 0.090472485339666
#    },
#    "pyroVoltage": {
#        "mean": 0.1340816812058322,
#        "std": 0.006491351888119294
#    },
#    "rotatorAngle": 90.0,
#    "sample_Temp": "58",
#    "sample_name": "L001218.C3",
#    "series": "SpotD_16_-45",
#    "slits": "60",
#    "spec_step": "",
#    "window_trans": 0.92,
#    "y_max": 2,
#    "y_min": 1
#}
#
#
#
#
#
#
#
#
#
#
#
#
#
#
#
#
#
#
#
#
#
#
#
#
#
#
Wavelength,Signal,error
nm,arb. u.,arb.u.
Wavelength,SpotD_16_-45,error
761.200217,-0.075000,0.064952
761.233859,0.209091,0.160094
761.267500,0.375000,0.213234
761.301141,0.122727,0.108402
761.334781,0.245455,0.178897
761.368422,-0.438636,0.054201
761.402062,-0.022727,0.040465
761.435702,0.079545,0.116659
761.469342,-0.225000,0.073951
761.502981,0.156818,0.155325
761.536620,-0.145455,0.055017
761.570259,0.052273,0.073881
761.603898,-0.240909,0.035428
761.637537,-0.243182,0.102418
761.671175,-0.145455,0.089593
761.704813,0.325000,0.204252
761.738451,0.122727,0.054782
761.772088,-0.140909,0.097727
761.805726,-0.240909,0.050052
761.839363,-0.413636,0.062366
761.873000,-0.293182,0.035845
761.906636,-0.165909,0.109581
761.940273,-0.027273,0.063879
761.973909,-0.052273,0.054391
762.007545,0.145455,0.022953
762.041180,-0.313636,0.045511
762.074816,0.106818,0.189289
762.108451,0.504545,0.178738
762.142086,0.172727,0.198262
762.175720,0.102273,0.121559
762.209355,0.054545,0.141677
762.242989,0.102273,0.121559
762.276623,0.147727,0.056442
762.310257,0.040909,0.123879
762.343890,-0.370455,0.058155
762.377524,-0.197727,0.062189
762.411157,0.120455,0.039545
762.444789,0.000000,0.093541
762.478422,0.047727,0.195121
762.512054,0.022727,0.073399
762.545686,0.022727,0.095590
762.579318,-0.047727,0.042686
762.612950,0.297727,0.326314
762.646581,-0.134091,0.171448
762.680212,0.984091,0.406296
762.713843,0.002273,0.092953
762.747474,0.472727,0.246777
762.781104,0.002273,0.127044
762.814734,-0.513636,0.056636
762.848364,-0.172727,0.129645
762.881994,0.172727,0.163731
762.915623,0.047727,0.074646
762.949252,-0.195455,0.035574
762.982881,0.097727,0.035410
763.016510,-0.050000,0.043301
763.050139,-0.293182,0.061521
763.083767,-0.175000,0.089268
763.117395,0.070455,0.038081
763.151023,0.095455,0.059483
763.184650,0.350000,0.219374
763.218277,-0.170455,0.108062
763.251904,0.156818,0.155325
763.285531,-0.013636,0.166933
763.319158,0.097727,0.035410
763.352784,0.115909,0.159783
763.386410,0.161364,0.383443
763.420036,0.081818,0.274728
763.453661,0.484091,0.333996
763.487287,0.227273,0.351928
763.520912,-0.490909,0.230253
763.554537,0.145455,0.042153
763.588161,-0.097727,0.093562
763.621786,-0.093182,0.143538
763.655410,0.143182,0.037397
763.689034,-0.172727,0.042519
763.722657,-0.068182,0.085068
763.756281,0.025000,0.021651
763.789904,0.179545,0.110145
763.823527,-0.165909,0.067142
763.857150,-0.022727,0.155362
763.890772,-0.413636,0.037275
763.924394,0.229545,0.178300
763.958016,0.227273,0.267120
763.991638,0.327273,0.149966
764.025260,0.077273,0.072621
764.058881,0.195455,0.093624
764.092502,-0.390909,0.036221
764.126123,0.165909,0.083714
764.159743,0.025000,0.102317
764.193363,-0.002273,0.060334
764.226983,-0.150000,0.055902
764.260603,0.277273,0.186903
764.294223,-0.154545,0.121840
764.327842,-0.095455,0.059483
764.361461,0.000000,0.061237
764.395080,-0.097727,0.070738
764.428699,0.222727,0.258582
764.462317,0.040909,0.128826
764.495935,-0.011364,0.172499
764.529553,-0.200000,0.061237
764.563170,0.245455,0.164329
764.596788,0.070455,0.087751
764.630405,-0.193182,0.091891
764.664022,-0.172727,0.074551
764.697638,0.329545,0.151042
764.731255,0.115909,0.114152
764.764871,0.145455,0.055017
764.798487,-0.022727,0.064323
764.832103,-0.125000,0.041458
764.865718,0.184091,0.136794
764.899333,0.127273,0.287606
764.932948,-0.393182,0.040321
764.966563,-0.268182,0.054022
765.000177,0.120455,0.107535
765.033792,-0.245455,0.044768
765.067406,0.022727,0.040465
765.101019,-0.068182,0.059047
765.134633,-0.438636,0.020923
765.168246,-0.052273,0.073881
765.201859,0.250000,0.175000
765.235472,0.122727,0.022384
765.269084,0.197727,0.062189
765.302697,0.688636,0.408413
765.336309,0.072727,0.041161
765.369920,0.088636,0.118634
765.403532,-0.050000,0.025000
765.437143,0.006818,0.101302
765.470754,0.122727,0.022384
765.504365,0.000000,0.061237
765.537976,-0.027273,0.063879
765.571586,-0.277273,0.127658
765.605196,-0.218182,0.038703
765.638806,-0.072727,0.054261
765.672416,-0.147727,0.056442
765.706025,0.236364,0.098123
765.739634,-0.120455,0.017714
765.773243,0.168182,0.050769
765.806851,-0.020455,0.087101
765.840460,0.522727,0.361878
765.874068,0.272727,0.097064
765.907676,0.065909,0.113152
765.941284,0.145455,0.055017
765.974891,0.304545,0.165535
766.008498,-0.072727,0.021076
766.042105,-0.145455,0.022953
766.075712,-0.084091,0.140077
766.109318,0.200000,0.443001
766.142924,0.002273,0.145397
766.176530,-0.395455,0.073960
766.210136,-0.165909,0.067142
766.243741,0.295455,0.118291
766.277347,0.161364,0.206665
766.310951,-0.043182,0.172649
766.344556,-0.050000,0.043301
766.378161,0.265909,0.034822
766.411765,0.125000,0.258300
766.445369,0.022727,0.040465
766.478973,-0.025000,0.194856
766.512576,0.004545,0.076230
766.546179,-0.047727,0.082596
766.579782,-0.043182,0.131558
766.613385,0.113636,0.121181
766.646988,-0.263636,0.171135
766.680590,-0.052273,0.054391
766.714192,0.136364,0.137645
766.747794,-0.122727,0.054782
766.781395,0.497727,0.292333
766.814996,-0.122727,0.163557
766.848597,-0.152273,0.081208
766.882198,0.000000,0.035355
766.915799,-0.043182,0.085484
766.949399,0.195455,0.093624
766.982999,-0.050000,0.043301
767.016599,-0.143182,0.100740
767.050198,-0.022727,0.040465
767.083798,0.077273,0.052667
767.117397,0.050000,0.090139
767.150996,0.031818,0.279545
767.184594,-0.420455,0.068888
767.218193,0.127273,0.229354
767.251791,0.025000,0.054486
767.285389,-0.215909,0.068813
767.318986,-0.050000,0.082916
767.352583,0.143182,0.132848
767.386181,-0.045455,0.072798
767.419777,0.022727,0.095590
767.453374,0.540909,0.243564
767.486970,-0.463636,0.020580
767.520567,0.295455,0.063188
767.554162,0.018182,0.104001
767.587758,0.168182,0.061867
767.621353,0.372727,0.363366
767.654949,-0.122727,0.074169
767.688543,0.172727,0.074551
767.722138,0.020455,0.050858
767.755732,0.543182,0.218546
767.789327,0.122727,0.216220
767.822921,0.015909,0.190594
767.856514,-0.072727,0.181505
767.890108,0.136364,0.123273
767.923701,0.300000,0.086603
767.957294,0.727273,0.414771
767.990886,0.040909,0.095373
768.024479,0.145455,0.108521
768.058071,0.131818,0.180177
768.091663,-0.245455,0.027461
768.125255,-0.147727,0.056442
768.158846,0.120455,0.039545
768.192437,0.368182,0.305942
768.226028,-0.097727,0.070738
768.259619,0.043182,0.069337
768.293209,-0.097727,0.035410
768.326799,0.072727,0.021076
768.360389,-0.168182,0.061867
768.393979,0.047727,0.042686
768.427568,-0.047727,0.102821
768.461158,-0.050000,0.055902
768.494747,0.052273,0.159557
768.528335,0.290909,0.045907
768.561924,0.447727,0.176144
768.595512,0.172727,0.129645
768.629100,0.045455,0.072798
768.662688,0.047727,0.042686
768.696275,-0.043182,0.069337
768.729862,0.097727,0.196860
768.763449,0.588636,0.277336
768.797036,-0.140909,0.130578
768.830623,0.245455,0.090852
768.864209,-0.004545,0.067535
768.897795,0.052273,0.054391
768.931381,0.147727,0.056442
768.964966,-0.277273,0.141586
768.998551,0.590909,0.512962
769.032136,-0.009091,0.130360
769.065721,0.145455,0.114135
769.099305,-0.018182,0.179070
769.132890,-0.104545,0.108783
769.166474,0.490909,0.270216
769.200057,0.120455,0.184564
769.233641,0.293182,0.276197
769.267224,-0.065909,0.118547
769.300807,-0.586364,0.037275
769.334390,-0.022727,0.272073
769.367972,0.125000,0.054486
769.401555,0.350000,0.248747
769.435137,0.093182,0.342336
769.468718,0.079545,0.131754
769.502300,-0.095455,0.047835
769.535881,0.613636,0.390546
769.569462,-0.268182,0.142893
769.603043,-0.029545,0.086446
769.636623,0.177273,0.180721
769.670204,0.159091,0.187703
769.703784,0.286364,0.171301
769.737364,0.484091,0.092730
769.770943,1.100000,0.322102
769.804522,-0.065909,0.151008
769.838101,0.052273,0.279210
769.871680,-0.097727,0.070738
769.905259,0.031818,0.368301
769.938837,0.168182,0.050769
769.972415,0.227273,0.226613
770.005993,0.377273,0.244812
770.039570,0.143182,0.071753
770.073147,-0.002273,0.033767
770.106724,-0.070455,0.197358
770.140301,0.245455,0.057045
770.173878,-0.004545,0.057541
770.207454,-0.127273,0.094694
770.241030,0.481818,0.360111
770.274606,0.097727,0.093562
770.308181,0.422727,0.340356
770.341757,-0.002273,0.078360
770.375332,-0.004545,0.076230
770.408906,0.245455,0.178897
770.442481,-0.000000,0.289396
770.476055,-0.172727,0.042519
770.509629,0.043182,0.099033
770.543203,0.106818,0.189289
770.576776,0.172727,0.155910
770.610350,0.254545,0.167751
770.643923,0.027273,0.088491
770.677495,0.088636,0.118634
770.711068,-0.122727,0.054782
770.744640,-0.097727,0.035410
770.778212,-0.195455,0.061364
770.811784,-0.025000,0.021651
770.845356,-0.143182,0.051464
770.878927,0.388636,0.109675
770.912498,-0.025000,0.054486
770.946069,-0.315909,0.037945
770.979639,0.213636,0.123503
771.013209,0.150000,0.103078
771.046779,-0.463636,0.073645
771.080349,-0.018182,0.115395
771.113919,0.075000,0.041458
771.147488,-0.027273,0.039756
771.181057,0.095455,0.077706
771.214626,-0.147727,0.043997
771.248194,-0.025000,0.073951
771.281762,-0.240909,0.050052
771.315330,0.175000,0.155624
771.348898,0.218182,0.123483
771.382465,-0.125000,0.054486
771.416033,0.347727,0.175821
771.449600,0.522727,0.259240
771.483166,0.715909,0.400946
771.516733,1.736364,0.561828
771.550299,0.465909,0.264719
771.583865,0.215909,0.168776
771.617431,0.015909,0.106425
771.650996,0.138636,0.093452
771.684562,0.045455,0.072798
771.718127,-0.077273,0.052667
771.751691,-0.050000,0.043301
771.785256,-0.122727,0.074169
771.818820,-0.022727,0.142784
771.852384,-0.050000,0.108972
771.885948,-0.068182,0.068823
771.919511,-0.009091,0.135070
771.953074,0.268182,0.054022
771.986637,0.420455,0.199363
772.020200,0.125000,0.054486
772.053762,0.186364,0.180034
772.087325,-0.093182,0.096711
772.120887,-0.320455,0.044926
772.154448,0.050000,0.025000
772.188010,-0.220455,0.055146
772.221571,-0.100000,0.079057
772.255132,0.172727,0.023619
772.288692,0.084091,0.323453
772.322253,0.209091,0.182017
772.355813,-0.368182,0.067151
772.389373,-0.461364,0.092228
772.422933,0.479545,0.433244
772.456492,0.329545,0.151042
772.490051,0.197727,0.117760
772.523610,-0.145455,0.055017
772.557169,-0.065909,0.142490
772.590727,0.250000,0.336341
772.624285,-0.047727,0.042686
772.657843,0.025000,0.021651
772.691401,-0.340909,0.054403
772.724958,-0.034091,0.116614
772.758515,-0.002273,0.048890
772.792072,0.397727,0.289991
772.825629,-0.177273,0.094393
772.859185,-0.029545,0.070519
772.892741,-0.313636,0.057631
772.926297,0.375000,0.288043
772.959853,0.097727,0.154123
772.993408,-0.777273,0.066066
773.026963,-0.318182,0.024266
773.060518,0.068182,0.121394
773.094073,-0.295455,0.080578
773.127627,0.593182,0.385432
773.161181,0.322727,0.090710
773.194735,0.229545,0.125572
773.228289,0.420455,0.208556
773.261842,1.947727,0.201143
773.295395,1.663636,0.547487
773.328948,1.109091,0.208770
773.362500,0.270455,0.075198
773.396053,0.156818,0.163174
773.429605,0.047727,0.042686
773.463157,0.422727,0.164596
773.496708,0.118182,0.070050
773.530260,-0.072727,0.133956
773.563811,-0.270455,0.043643
773.597361,-0.045455,0.101487
773.630912,0.409091,0.157229
773.664462,0.168182,0.050769
773.698012,0.125000,0.318934
773.731562,-0.050000,0.055902
773.765111,-0.075000,0.096014
773.798661,-0.052273,0.054391
773.832210,-0.052273,0.054391
773.865758,-0.070455,0.080313
773.899307,0.247727,0.201988
773.932855,-0.025000,0.021651
773.966403,-0.261364,0.215547
773.999951,-0.190909,0.053878
774.033498,0.122727,0.159690
774.067046,0.304545,0.169269
774.100593,0.029545,0.070519
774.134139,0.115909,0.102619
774.167686,0.143182,0.079991
774.201232,0.425000,0.207289
774.234778,0.022727,0.040465
774.268324,-0.027273,0.053203
774.301869,-0.047727,0.023918
774.335414,-0.220455,0.074438
774.368959,0.168182,0.061867
774.402504,0.020455,0.050858
774.436048,-0.370455,0.058155
774.469592,0.370455,0.233735
774.503136,-0.054545,0.071220
774.536680,-0.050000,0.025000
774.570223,0.075000,0.073951
774.603766,0.140909,0.109775
774.637309,0.272727,0.090396
774.670852,0.368182,0.185767
774.704394,0.027273,0.088491
774.737936,-0.365909,0.073601
774.771478,-0.197727,0.087278
774.805020,0.068182,0.110619
774.838561,0.156818,0.188084
774.872102,0.418182,0.140285
774.905643,-0.027273,0.039756
774.939183,0.375000,0.143069
774.972724,0.493182,0.323213
775.006264,0.572727,0.225859
775.039804,1.396212,0.446208
775.073343,1.254545,0.405451
775.106882,1.677273,0.480460
775.140421,1.422727,0.585857
775.173960,0.093182,0.272678
775.207499,-0.143182,0.180689
775.241037,0.097727,0.035410
775.274575,0.125000,0.227418
775.308113,0.181818,0.202592
775.341650,-0.002273,0.033767
775.375187,-0.027273,0.053203
775.408724,-0.220455,0.074438
775.442261,-0.170455,0.054106
775.475798,0.052273,0.134009
775.509334,0.193182,0.046840
775.542870,-0.097727,0.093562
775.576405,-0.161364,0.118154
775.609941,0.100000,0.061237
775.643476,0.100000,0.150000
775.677011,-0.077273,0.072621
775.710546,0.629545,0.347354
775.744080,0.809091,0.308874
775.777614,0.227273,0.252692
775.811148,-0.045455,0.072798
775.844682,-0.011364,0.136037
775.878215,-0.247727,0.057440
775.911748,0.222727,0.152035
775.945281,0.020455,0.100432
775.978814,0.293182,0.280686
776.012346,0.220455,0.102670
776.045878,0.009091,0.139620
776.079410,0.627273,0.457874
776.112941,0.177273,0.212242
776.146473,-0.056818,0.109392
776.180004,-0.025000,0.134048
776.213535,0.388636,0.027905
776.247065,-0.009091,0.115082
776.280595,-0.120455,0.072896
776.314125,-0.025000,0.089268
776.347655,-0.195455,0.035574
776.381185,-0.104545,0.102877
776.414714,0.318182,0.074759
776.448243,0.129545,0.225822
776.481772,-0.170455,0.020674
776.515300,-0.122727,0.054782
776.548828,0.120455,0.128700
776.582356,-0.045455,0.128645
776.615884,-0.097727,0.070738
776.649411,0.147727,0.103372
776.682938,0.000000,0.061237
776.716465,0.468182,0.271921
776.749992,0.375000,0.194856
776.783518,0.459091,0.079805
776.817044,2.152273,0.543247
776.850570,3.225000,0.608661
776.884096,2.511364,0.602066
776.917621,2.295455,0.772182
776.951146,1.661364,0.325760
776.984671,0.402273,0.350978
777.018196,0.250000,0.090139
777.051720,0.102273,0.116304
777.085244,0.093182,0.055705
777.118768,-0.415909,0.160139
777.152292,-0.020455,0.087101
777.185815,0.070455,0.038081
777.219338,0.038636,0.134778
777.252861,-0.120455,0.039545
777.286383,-0.047727,0.023918
777.319905,0.100000,0.206155
777.353427,0.170455,0.054106
777.386949,0.197727,0.127936
777.420471,0.445455,0.093320
777.453992,0.145455,0.042153
777.487513,0.220455,0.042321
777.521033,-0.440909,0.046522
777.554554,-0.172727,0.023619
777.588074,0.020455,0.061940
777.621594,0.122727,0.022384
777.655114,0.320455,0.139708
777.688633,0.072727,0.054261
777.722152,0.075000,0.064952
777.755671,0.009091,0.120390
777.789190,0.000000,0.127475
777.822708,0.215909,0.339396
777.856226,0.184091,0.132146
777.889744,0.209091,0.160094
777.923261,0.120455,0.315105
777.956779,0.175000,0.155624
777.990296,0.195455,0.106139
778.023812,0.120455,0.039545
778.057329,-0.165909,0.090874
778.090845,-0.102273,0.105008
778.124361,-0.122727,0.074169
778.157877,-0.097727,0.093562
778.191392,-0.197727,0.062189
778.224908,0.095455,0.110852
778.258423,0.627273,0.459237
778.291937,-0.095455,0.032221
778.325452,0.468182,0.264936
778.358966,-0.077273,0.113021
778.392480,-0.004545,0.103976
778.425993,0.025000,0.021651
778.459507,0.200000,0.145774
778.493020,0.106818,0.182566
778.526533,0.577273,0.583914
778.560045,0.177273,0.218052
778.593558,0.290909,0.045907
778.627070,0.777273,0.055809
778.660582,3.697727,0.649741
778.694093,4.311364,0.391363
778.727605,2.813636,0.496834
778.761116,1.202273,0.202270
778.794626,0.270455,0.164027
778.828137,0.320455,0.097562
778.861647,0.115909,0.129540
778.895157,0.597727,0.493023
778.928667,0.075000,0.021651
778.962176,0.125000,0.167239
778.995686,0.245455,0.201877
779.029194,0.125000,0.081968
779.062703,0.070455,0.051963
779.096212,0.318182,0.024266
779.129720,0.152273,0.113335
779.163228,-0.290909,0.029282
779.196735,-0.052273,0.073881
779.230243,-0.379545,0.238070
779.263750,-0.022727,0.064323
779.297257,0.072727,0.021076
779.330763,0.068182,0.068823
779.364269,-0.025000,0.054486
779.397776,0.145455,0.042153
779.431281,0.243182,0.204302
779.464787,0.220455,0.207463
779.498292,0.195455,0.061364
779.531797,0.227273,0.146128
779.565302,0.029545,0.070519
779.598806,-0.125000,0.054486
779.632311,0.331818,0.119507
779.665814,0.300000,0.203101
779.699318,-0.125000,0.089268
779.732822,0.177273,0.162512
779.766325,0.088636,0.107583
779.799828,0.125000,0.064952
779.833330,0.115909,0.102619
779.866833,-0.150000,0.043301
779.900335,0.095455,0.059483
779.933837,0.170455,0.020674
779.967338,-0.147727,0.043997
780.000840,-0.152273,0.113335
780.034341,-0.343182,0.057709
780.067841,0.122727,0.082165
780.101342,-0.240909,0.050052
780.134842,0.336364,0.107517
780.168342,-0.052273,0.054391
780.201842,0.150000,0.082916
780.235341,0.247727,0.201988
780.268841,0.054545,0.141677
780.302340,-0.050000,0.114564
780.335838,0.243182,0.074091
780.369337,0.129545,0.201912
780.402835,0.213636,0.088052
780.436333,1.534091,0.233713
780.469830,3.175000,0.124373
780.503328,6.004545,0.879381
780.536825,5.562879,0.599283
780.570322,3.143182,0.778935
780.603818,2.222727,0.349091
780.637315,0.243182,0.134125
780.670811,0.063636,0.134725
780.704306,0.352273,0.146176
780.737802,0.102273,0.069113
780.771297,-0.127273,0.087846
780.804792,-0.213636,0.072478
780.838287,0.070455,0.051963
780.871781,-0.100000,0.035355
780.905276,-0.045455,0.080930
780.938770,0.106818,0.223431
780.972263,-0.120455,0.017714
781.005757,0.002273,0.060334
781.039250,-0.118182,0.111387
781.072743,0.100000,0.061237
781.106235,0.018182,0.076263
781.139728,0.093182,0.119804
781.173220,0.247727,0.103920
781.206712,0.445455,0.190286
781.240203,-0.120455,0.072896
781.273694,0.045455,0.080930
781.307185,0.045455,0.052911
781.340676,0.127273,0.255376
781.374167,0.320455,0.230799
781.407657,0.193182,0.030724
781.441147,0.029545,0.093396
781.474636,-0.025000,0.021651
781.508126,-0.022727,0.184763
781.541615,0.222727,0.258582
781.575104,0.202273,0.164812
781.608593,0.027273,0.053203
781.642081,-0.122727,0.022384
781.675569,-0.177273,0.132891
781.709057,0.368182,0.233472
781.742544,0.395455,0.235521
781.776032,-0.195455,0.035574
781.809519,-0.097727,0.070738
781.843006,0.270455,0.075198
781.876492,-0.050000,0.075000
781.909978,0.072727,0.054261
781.943464,0.250000,0.075000
781.976950,0.150000,0.134629
782.010435,0.375000,0.357727
782.043921,-0.100000,0.035355
782.077406,0.027273,0.088491
782.110890,-0.009091,0.109516
782.144375,-0.147727,0.056442
782.177859,0.652273,0.208358
782.211343,0.020455,0.150288
782.244826,2.190909,0.360010
782.278309,3.936364,0.488007
782.311792,6.225000,0.260708
782.345275,5.862879,0.422443
782.378758,5.452273,0.855067
782.412240,1.595455,0.214300
782.445722,0.497727,0.245883
782.479204,0.172727,0.042519
782.512685,-0.188636,0.172169
782.546166,0.000000,0.122474
782.579647,-0.047727,0.042686
782.613128,0.143182,0.071753
782.646608,-0.025000,0.073951
782.680088,0.122727,0.054782
782.713568,-0.220455,0.023261
782.747048,0.318182,0.174897
782.780527,0.054545,0.112126
782.814006,-0.100000,0.050000
782.847485,-0.075000,0.021651
782.880963,-0.290909,0.084306
782.914442,0.002273,0.149634
782.947920,0.263636,0.108569
782.981397,0.025000,0.054486
783.014875,0.002273,0.078360
783.048352,0.097727,0.247495
783.081829,-0.125000,0.064952
783.115306,-0.100000,0.050000
783.148782,0.472727,0.256708
783.182258,-0.129545,0.104860
783.215734,0.050000,0.075000
783.249209,-0.061364,0.230822
783.282685,0.100000,0.079057
783.316160,0.197727,0.218214
783.349635,0.020455,0.071320
783.383109,-0.295455,0.063188
783.416583,-0.143182,0.100740
783.450057,-0.120455,0.039545
783.483531,-0.045455,0.039365
783.517004,0.252273,0.142236
783.550477,-0.047727,0.042686
783.583950,0.097727,0.001968
783.617423,0.097727,0.035410
783.650895,0.311364,0.086506
783.684367,-0.102273,0.105008
783.717839,-0.511364,0.036699
783.751311,-0.093182,0.074854
783.784782,0.075000,0.096014
783.818253,-0.122727,0.054782
783.851724,0.193182,0.030724
783.885194,0.215909,0.068813
783.918665,0.025000,0.021651
783.952134,0.170455,0.054106
783.985604,0.072727,0.054261
784.019074,0.188636,0.179283
784.052543,0.665909,0.214442
784.086012,2.881818,0.653242
784.119480,5.159091,0.843966
784.152948,9.863636,0.911213
784.186416,9.895455,0.671848
784.219884,6.009091,1.023671
784.253352,3.363636,0.677204
784.286819,0.143182,0.037397
784.320286,0.552273,0.317847
784.353753,0.018182,0.091193
784.387219,0.418182,0.199198
784.420685,-0.029545,0.111682
784.454151,0.120455,0.039545
784.487617,0.002273,0.208902
784.521082,-0.029545,0.070519
784.554547,0.120455,0.039545
784.588012,-0.031818,0.090253
784.621477,0.418182,0.323543
784.654941,-0.027273,0.063879
784.688405,0.261364,0.110192
784.721869,-0.054545,0.087019
784.755332,0.013636,0.155296
784.788795,0.420455,0.140519
784.822258,0.097727,0.035410
784.855721,0.243182,0.124456
784.889183,-0.052273,0.041333
784.922646,-0.168182,0.050769
784.956107,0.197727,0.177109
784.989569,-0.220455,0.055146
785.023030,-0.168182,0.050769
785.056491,-0.120455,0.039545
785.089952,0.029545,0.093396
785.123413,0.200000,0.173205
785.156873,-0.179545,0.104317
785.190333,-0.102273,0.092340
785.223792,0.065909,0.095150
785.257252,-0.120455,0.017714
785.290711,0.125000,0.081968
785.324170,0.000000,0.035355
785.357629,-0.122727,0.108402
785.391087,0.222727,0.167674
785.424545,0.147727,0.056442
785.458003,0.120455,0.039545
785.491460,0.345455,0.131268
785.524918,0.418182,0.084733
785.558375,0.140909,0.076162
785.591831,-0.072727,0.081818
785.625288,-0.002273,0.127044
785.658744,0.375000,0.181573
785.692200,-0.068182,0.068823
785.725655,-0.102273,0.059385
785.759111,0.163636,0.099845
785.792566,-0.070455,0.051963
785.826021,0.534091,0.359398
785.859475,-0.036364,0.190611
785.892930,0.409091,0.084977
785.926384,2.447727,0.349843
785.959837,4.706818,0.346952
785.993291,10.597727,1.127600
786.026744,13.445455,0.569154
786.060197,10.313636,1.156613
786.093649,3.345455,0.583741
786.127102,1.140909,0.567094
786.160554,0.209091,0.163952
786.194006,0.234091,0.121389
786.227457,0.093182,0.134548
786.260909,0.000000,0.035355
786.294360,0.200000,0.093541
786.327810,-0.025000,0.163459
786.361261,0.097727,0.093562
786.394711,0.102273,0.077631
786.428161,-0.077273,0.088169
786.461611,0.002273,0.060334
786.495060,0.050000,0.025000
786.528509,-0.102273,0.116304
786.561958,0.247727,0.219771
786.595407,0.170455,0.102115
786.628855,0.202273,0.148872
786.662303,0.075000,0.041458
786.695751,0.047727,0.023918
786.729198,0.143182,0.132848
786.762645,-0.025000,0.041458
786.796092,0.113636,0.115909
786.829539,0.293182,0.276197
786.862985,-0.220455,0.102670
786.896431,-0.045455,0.039365
786.929877,0.104545,0.089909
786.963323,-0.072727,0.089130
786.996768,0.200000,0.093541
787.030213,0.329545,0.371539
787.063658,-0.120455,0.128700
787.097102,0.061364,0.144148
787.130547,-0.122727,0.022384
787.163991,0.079545,0.105400
787.197434,-0.135606,0.087495
787.230878,0.615152,0.095653
787.264321,0.675000,0.359470
787.297764,0.029545,0.111682
787.331206,-0.031818,0.090253
787.364648,0.145455,0.089593
787.398090,0.240909,0.050052
787.431532,0.147727,0.043997
787.464974,0.036364,0.164361
787.498415,-0.418182,0.068409
787.531856,0.140909,0.083968
787.565296,0.009091,0.263617
787.598737,0.025000,0.021651
787.632177,0.170455,0.089036
787.665617,0.084091,0.164686
787.699056,0.097727,0.035410
787.732496,0.263636,0.134303
787.765935,1.629545,0.439752
787.799373,5.575000,0.924916
787.832812,13.486364,0.628963
787.866250,19.079545,0.902255
787.899688,14.675000,1.008325
787.933126,6.822727,1.030413
787.966563,3.029545,0.887012
788.000000,0.825000,0.415895
788.033437,0.075000,0.129301
788.066873,0.268182,0.054022
788.100310,0.250000,0.075000
788.133746,0.175000,0.102317
788.167181,0.047727,0.055426
788.200617,0.170455,0.020674
788.234052,0.072727,0.021076
788.267487,0.104545,0.213503
788.300921,0.143182,0.112466
788.334356,0.143182,0.128057
788.367790,0.077273,0.072621
788.401224,0.277273,0.112011
788.434657,-0.115909,0.235650
788.468090,0.225000,0.224653
788.501523,0.095455,0.059483
788.534956,0.195455,0.070820
788.568389,0.197727,0.094167
788.601821,0.175000,0.064952
788.635253,0.020455,0.169813
788.668684,0.072727,0.054261
788.702116,0.202273,0.182792
788.735547,0.386364,0.070893
788.768977,0.243182,0.113971
788.802408,0.150000,0.134629
788.835838,-0.175000,0.089268
788.869268,-0.002273,0.048890
788.902698,0.095455,0.077706
788.936127,0.147727,0.143825
788.969556,0.343182,0.321450
789.002985,0.145455,0.124607
789.036414,0.090909,0.105822
789.069842,-0.100000,0.050000
789.103270,0.000000,0.061237
789.136698,0.150000,0.188746
789.170125,0.225000,0.113880
789.203552,0.609091,0.348299
789.236979,0.218182,0.038703
789.270406,0.027273,0.163036
789.303832,0.225000,0.124373
789.337258,0.000000,0.000000
789.370684,0.000000,0.061237
789.404110,0.136364,0.118094
789.437535,0.375000,0.181573
789.470960,0.075000,0.064952
789.504385,0.118182,0.049061
789.537809,0.100000,0.145774
789.571233,0.236364,0.168458
789.604657,1.118182,0.153808
789.638081,4.854545,0.343219
789.671504,10.156818,0.771753
789.704927,20.395455,0.556280
789.738350,22.279545,0.738684
789.771772,15.261364,1.044077
789.805195,4.565152,0.751590
789.838617,1.538636,0.136037
789.872038,0.377273,0.161811
789.905460,-0.636364,0.033247
789.938881,0.022727,0.040465
789.972302,0.072727,0.194793
790.005722,0.113636,0.115909
790.039143,0.052273,0.081905
790.072563,0.161364,0.133081
790.105982,0.197727,0.127936
790.139402,0.097727,0.093562
790.172821,-0.220455,0.074438
790.206240,0.075000,0.021651
790.239658,0.320455,0.168132
790.273077,0.222727,0.114519
790.306495,-0.220455,0.055146
790.339913,0.052273,0.041333
790.373330,-0.100000,0.035355
790.406747,0.325000,0.310996
790.440164,-0.150000,0.055902
790.473581,-0.050000,0.055902
790.506997,0.197727,0.117760
790.540414,0.097727,0.061269
790.573829,0.515909,0.259517
790.607245,0.025000,0.054486
790.640660,-0.147727,0.056442
790.674075,0.140909,0.076162
790.707490,0.656818,0.297204
790.740904,0.675000,0.420379
790.774319,0.018182,0.115395
790.807733,0.047727,0.055426
790.841146,0.022727,0.040465
790.874560,-0.172727,0.042519
790.907973,0.095455,0.077706
790.941385,0.343182,0.164561
790.974798,0.000000,0.070711
791.008210,0.756818,0.378139
791.041622,0.045455,0.052911
791.075034,0.220455,0.124664
791.108445,0.138636,0.117189
791.141856,0.270455,0.096978
791.175267,-0.200000,0.079057
791.208678,0.047727,0.042686
791.242088,-0.095455,0.032221
791.275498,0.147727,0.043997
791.308908,0.352273,0.180603
791.342317,0.395455,0.147377
791.375726,0.640909,0.244495
791.409135,0.365909,0.073601
791.442544,0.431818,0.311098
791.475952,1.747727,0.370968
791.509360,5.981061,0.833464
791.542768,22.927273,1.062475
791.576176,35.179545,1.127132
791.609583,37.968182,3.146529
791.642990,21.200758,0.594992
791.676396,8.137879,0.298761
791.709803,1.695455,0.772550
791.743209,0.806818,0.241752
791.776615,0.022727,0.128986
791.810020,0.109091,0.172727
791.843425,-0.025000,0.021651
791.876830,-0.411364,0.066446
791.910235,0.193182,0.046840
791.943640,-0.097727,0.035410
791.977044,-0.170455,0.159460
792.010448,-0.170455,0.020674
792.043851,0.027273,0.063879
792.077254,0.015909,0.100380
792.110658,0.175000,0.089268
792.144060,0.000000,0.070711
792.177463,-0.170455,0.020674
792.210865,-0.025000,0.081968
792.244267,0.247727,0.115323
792.277668,0.393182,0.298539
792.311070,-0.006818,0.080698
792.344471,0.563636,0.257992
792.377872,0.047727,0.023918
792.411272,0.352273,0.278599
792.444672,0.402273,0.268208
792.478072,0.050000,0.043301
792.511472,0.284091,0.284978
792.544871,0.100000,0.111803
792.578271,-0.250000,0.075000
792.611669,0.340909,0.303586
792.645068,0.125000,0.113880
792.678466,-0.218182,0.107228
792.711864,-0.125000,0.064952
792.745262,0.168182,0.127779
792.778659,-0.122727,0.041845
792.812056,-0.027273,0.053203
792.845453,0.313636,0.045511
792.878850,-0.075000,0.064952
792.912246,0.025000,0.021651
792.945642,0.147727,0.043997
792.979038,0.122727,0.022384
793.012433,0.272727,0.090396
793.045829,-0.115909,0.089614
793.079223,-0.513636,0.026602
793.112618,-0.175000,0.134048
793.146012,0.100000,0.035355
793.179406,0.061364,0.144148
793.212800,0.004545,0.076230
793.246194,0.129545,0.140519
793.279587,0.220455,0.074438
793.312980,0.368182,0.109587
793.346373,2.695455,0.773065
793.379765,6.805303,0.784498
793.413157,19.538636,0.782540
793.446549,38.270455,1.636923
793.479940,41.484091,0.858756
793.513332,28.536364,1.099573
793.546723,10.003030,1.270129
793.580113,2.238636,0.505521
793.613504,0.831818,0.322223
793.646894,0.395455,0.263097
793.680284,0.065909,0.095150
793.713673,-0.097727,0.035410
793.747062,0.002273,0.048890
793.780451,-0.095455,0.059483
793.813840,0.422727,0.236309
793.847228,0.120455,0.017714
793.880617,0.265909,0.145645
793.914004,0.484091,0.179858
793.947392,-0.070455,0.112695
793.980779,-0.322727,0.075686
794.014166,-0.175000,0.096014
794.047553,0.068182,0.085068
794.080940,0.547727,0.318026
794.114326,0.420455,0.234463
794.147712,0.131818,0.159075
794.181097,-0.018182,0.109846
794.214483,0.225000,0.073951
794.247868,0.361364,0.088454
794.281252,0.404545,0.316073
794.314637,-0.122727,0.074169
794.348021,0.175000,0.073951
794.381405,0.122727,0.114022
794.414788,0.450000,0.219374
794.448172,0.370455,0.091553
794.481555,0.168182,0.206343
794.514938,-0.175000,0.064952
794.548320,-0.102273,0.077631
794.581702,-0.020455,0.071320
794.615084,0.388636,0.090987
794.648466,-0.077273,0.052667
794.681847,0.400000,0.196850
794.715228,-0.056818,0.390266
794.748609,-0.343182,0.148594
794.781990,-0.645455,0.235882
794.815370,0.395455,0.081976
794.848750,1.079545,0.564455
794.882129,-0.325000,0.119242
794.915509,0.165909,0.090874
794.948888,-0.365909,0.054010
794.982267,0.068182,0.085068
795.015645,-0.134091,0.147967
795.049023,0.002273,0.127044
795.082401,0.459091,0.184035
795.115779,-0.025000,0.021651
795.149156,0.350000,0.201556
795.182534,0.840909,0.197440
795.215910,0.831818,0.137213
795.249287,3.772727,0.816165
795.282663,16.284848,1.351480
795.316039,41.161364,0.876580
795.349415,63.636364,2.042634
795.382790,51.446212,1.561884
795.416165,23.057576,0.651474
795.449540,6.704545,0.876922
795.482915,1.488636,0.247683
795.516289,0.400000,0.176777
795.549663,0.075000,0.041458
795.583037,0.297727,0.232338
795.616410,-0.006818,0.101302
795.649783,-0.293182,0.005905
795.683156,-0.022727,0.040465
795.716529,0.025000,0.054486
795.749901,-0.268182,0.088985
795.783273,-0.102273,0.077631
795.816645,-0.065909,0.113152
795.850016,0.200000,0.234521
795.883387,0.372727,0.195666
795.916758,-0.022727,0.040465
795.950129,0.120455,0.063748
795.983499,-0.120455,0.017714
796.016869,0.200000,0.266927
796.050239,-0.461364,0.031717
796.083608,0.584091,0.163995
796.116977,-0.047727,0.108729
796.150346,-0.022727,0.272073
796.183714,0.170455,0.054106
796.217083,0.340909,0.041349
796.250451,-0.152273,0.159200
796.283818,0.293182,0.231916
796.317186,-0.093182,0.065978
796.350553,0.050000,0.108972
796.383920,0.011364,0.241880
796.417286,0.390909,0.061741
796.450653,0.025000,0.073951
796.484019,0.047727,0.023918
796.517384,0.225000,0.124373
796.550750,0.272727,0.182130
796.584115,0.320455,0.204984
796.617480,-0.068182,0.068823
796.650844,0.270455,0.109109
796.684209,0.120455,0.039545
796.717573,-0.054545,0.112126
796.750936,0.331818,0.134283
796.784300,0.072727,0.021076
796.817663,-0.020455,0.271729
796.851026,-0.072727,0.089130
796.884388,-0.179545,0.140114
796.917751,0.315909,0.106957
796.951113,-0.268182,0.108020
796.984474,0.245455,0.195587
797.017836,0.297727,0.170238
797.051197,0.043182,0.099033
797.084558,0.090909,0.132092
797.117918,1.247727,0.258939
797.151279,4.979545,0.569266
797.184639,21.425000,1.369934
797.217998,48.149242,1.201026
797.251358,66.286364,1.904785
797.284717,52.470455,3.099409
797.318076,17.409848,1.579640
797.351434,4.336364,0.667401
797.384793,1.495455,0.263959
797.418151,0.934091,0.170451
797.451508,0.268182,0.133860
797.484866,-0.095455,0.059483
797.518223,0.050000,0.075000
797.551580,-0.045455,0.133415
797.584936,0.450000,0.453459
797.618292,0.054545,0.150241
797.651648,0.025000,0.081968
797.685004,-0.020455,0.100432
797.718360,0.211364,0.096444
797.751715,0.279545,0.167115
797.785069,0.586364,0.351171
797.818424,-0.097727,0.035410
797.851778,0.131818,0.173101
797.885132,-0.418182,0.084733
797.918486,0.256818,0.140335
797.951839,0.295455,0.263097
797.985192,0.288636,0.072184
798.018545,0.095455,0.092403
798.051898,0.522727,0.199548
798.085250,0.115909,0.074369
798.118602,0.122727,0.143182
798.151954,0.577273,0.500955
798.185305,-0.025000,0.134048
798.218656,0.190909,0.124108
798.252007,0.572727,0.179617
798.285357,0.390909,0.106358
798.318708,0.136364,0.173771
798.352057,0.347727,0.131007
798.385407,0.025000,0.054486
798.418756,0.125000,0.041458
798.452106,0.145455,0.055017
798.485454,0.002273,0.060334
798.518803,0.445455,0.153976
798.552151,-0.050000,0.055902
798.585499,0.370455,0.104317
798.618847,0.088636,0.197672
798.652194,0.122727,0.124503
798.685541,0.268182,0.020455
798.718888,0.620455,0.238070
798.752234,0.100000,0.117260
798.785580,0.472727,0.179301
798.818926,0.077273,0.052667
798.852272,0.670455,0.472032
798.885617,-0.097727,0.093562
798.918962,0.170455,0.020674
798.952307,0.554545,0.161891
798.985651,0.640909,0.253620
799.018996,1.518182,0.297944
799.052339,5.697727,0.749017
799.085683,24.269697,0.642709
799.119026,70.057576,1.939283
799.152369,85.865909,4.039713
799.185712,63.606818,3.374778
799.219054,22.533333,1.642787
799.252397,5.036364,0.696479
799.285738,1.559091,0.314434
799.319080,0.145455,0.235641
799.352421,0.025000,0.113880
799.385762,0.138636,0.093452
799.419103,-0.025000,0.073951
799.452443,0.147727,0.090475
799.485783,0.195455,0.003936
799.519123,0.209091,0.134648
799.552463,0.243182,0.311577
799.585802,0.177273,0.106818
799.619141,0.070455,0.038081
799.652480,0.009091,0.184497
799.685818,0.300000,0.206155
799.719156,0.913636,0.278026
799.752494,0.415909,0.083032
799.785831,0.381818,0.128886
799.819169,0.568182,0.372748
799.852506,0.218182,0.276583
799.885842,0.115909,0.219159
799.919179,-0.220455,0.055146
799.952515,0.540909,0.318385
799.985850,0.070455,0.038081
800.019186,0.136364,0.173771
800.052521,0.329545,0.151042
800.085856,0.059091,0.207815
800.119191,0.259091,0.110806
800.152525,0.465909,0.098090
800.185859,0.359091,0.134437
800.219193,0.002273,0.033767
800.252526,0.125000,0.041458
800.285859,0.322727,0.139565
800.319192,0.297727,0.235013
800.352525,0.047727,0.114333
800.385857,0.052273,0.134009
800.419189,0.813636,0.284890
800.452521,0.620455,0.177982
800.485852,0.359091,0.185266
800.519183,0.022727,0.336156
800.552514,0.209091,0.204646
800.585844,-0.977273,0.073399
800.619175,-0.093182,0.055705
800.652505,-0.075000,0.073951
800.685834,0.672727,0.257150
800.719164,0.002273,0.092953
800.752493,0.347727,0.135694
800.785821,0.270455,0.156220
800.819150,0.147727,0.103372
800.852478,0.584091,0.090246
800.885806,0.200000,0.061237
800.919134,0.956818,0.157504
800.952461,4.829545,0.325046
800.985788,35.772727,1.743068
801.019115,119.871212,2.544672
801.052441,197.470455,1.925863
801.085767,171.306818,5.092612
801.119093,67.854545,3.142029
801.152419,18.200000,1.099432
801.185744,3.393182,0.669490
801.219069,0.154545,0.172757
801.252394,0.227273,0.127880
801.285718,-0.090909,0.122263
801.319042,0.154545,0.105333
801.352366,0.243182,0.389537
801.385690,0.125000,0.129301
801.419013,-0.327273,0.214770
801.452336,0.165909,0.152506
801.485658,-0.229545,0.347517
801.518981,0.390909,0.300860
801.552303,-0.052273,0.102266
801.585625,0.613636,0.268037
801.618946,-0.047727,0.023918
801.652267,0.006818,0.088103
801.685588,0.184091,0.132146
801.718909,0.175000,0.188331
801.752229,0.297727,0.094769
801.785549,0.102273,0.092340
801.818869,0.120455,0.155125
801.852188,0.431818,0.334338
801.885507,0.256818,0.140335
801.918826,0.777273,0.147867
801.952145,0.225000,0.124373
801.985463,0.050000,0.195256
802.018781,0.888636,0.382256
802.052099,0.645455,0.279129
802.085416,0.365909,0.177953
802.118733,0.461364,0.126515
802.152050,0.140909,0.097727
802.185366,0.197727,0.269476
802.218683,0.145455,0.102600
802.251999,0.347727,0.225891
802.285314,-0.190909,0.088898
802.318630,0.309091,0.100874
802.351945,0.406818,0.186568
802.385259,0.018182,0.091193
802.418574,0.395455,0.081976
802.451888,0.165909,0.083714
802.485202,0.161364,0.112741
802.518515,0.079545,0.105400
802.551829,0.702273,0.242860
802.585142,0.763636,0.247884
802.618454,0.415909,0.204681
802.651767,0.502273,0.260906
802.685079,-0.609091,0.036221
802.718391,0.075000,0.096014
802.751702,0.200000,0.106066
802.785013,0.875000,0.414390
802.818324,0.463636,0.020580
802.851635,1.509091,0.445501
802.884945,9.981818,0.997165
802.918255,52.800758,2.523038
802.951565,154.836364,2.216409
802.984874,215.947727,6.530419
803.018184,143.806818,7.236023
803.051492,43.013636,1.093276
803.084801,9.620455,1.359176
803.118109,1.675000,0.366359
803.151417,0.518182,0.254991
803.184725,0.238636,0.096444
803.218032,0.218182,0.038703
803.251339,0.293182,0.162126
803.284646,0.090909,0.086304
803.317953,0.343182,0.168316
803.351259,-0.370455,0.091553
803.384565,0.156818,0.165936
803.417870,0.529545,0.462425
803.451176,0.315909,0.037945
803.484481,0.272727,0.167844
803.517786,0.931818,0.554289
803.551090,0.165909,0.109581
803.584394,0.459091,0.132736
803.617698,0.163636,0.187000
803.651002,0.175000,0.167239
803.684305,0.152273,0.237658
803.717608,0.245455,0.201877
803.750910,0.302273,0.297152
803.784213,0.931818,0.321163
803.817515,1.197727,0.379299
803.850817,0.229545,0.204429
803.884118,0.293182,0.141545
803.917419,1.065909,0.138034
803.950720,0.670455,0.278951
803.984021,0.027273,0.113272
804.017321,0.159091,0.154863
804.050621,0.250000,0.219374
804.083921,0.418182,0.263969
804.117220,0.197727,0.127936
804.150519,0.100000,0.061237
804.183818,0.413636,0.154562
804.217117,-0.115909,0.181744
804.250415,0.375000,0.178098
804.283713,0.647727,0.177109
804.317011,0.150000,0.082916
804.350308,0.309091,0.100874
804.383605,0.886364,0.299474
804.416902,0.222727,0.082853
804.450198,0.406818,0.099033
804.483494,0.270455,0.156220
804.516790,0.336364,0.203862
804.550086,0.025000,0.054486
804.583381,0.036364,0.198782
804.616676,0.715909,0.230777
804.649971,0.625000,0.178098
804.683265,0.327273,0.173175
804.716559,0.027273,0.215825
804.749853,1.438636,0.300729
804.783146,2.463636,0.508533
804.816440,14.229545,0.866010
804.849732,81.011364,3.784971
804.883025,214.293939,2.290194
804.916317,269.900000,8.847104
804.949609,154.177273,3.067561
804.982901,41.015152,0.848205
805.016192,6.859091,0.865503
805.049484,1.986364,0.342489
805.082774,-0.115909,0.265576
805.116065,1.059091,0.292723
805.149355,0.165909,0.135122
805.182645,0.375000,0.415895
805.215935,0.722727,0.527904
805.249224,0.293182,0.247558
805.282513,0.297727,0.154858
805.315802,0.738636,0.228347
805.349090,0.179545,0.214201
805.382378,0.511364,0.141763
805.415666,0.440909,0.202273
805.448954,0.218182,0.128444
805.482241,0.675000,0.446339
805.515528,0.534091,0.130850
805.548815,0.318182,0.042882
805.582101,0.913636,0.235543
805.615387,0.597727,0.462949
805.648673,0.363636,0.085763
805.681958,-0.104545,0.134476
805.715243,0.890909,0.305916
805.748528,1.031818,0.198483
805.781813,1.029545,0.374129
805.815097,1.127273,0.262616
805.848381,0.254545,0.363480
805.881665,0.159091,0.305265
805.914948,0.534091,0.199052
805.948231,0.202273,0.205059
805.981514,0.075000,0.155624
806.014796,1.268182,0.567459
806.048079,0.672727,0.190068
806.081360,0.050000,0.090139
806.114642,0.745455,0.243702
806.147923,0.438636,0.267746
806.181204,0.272727,0.167844
806.214485,-0.086364,0.198067
806.247765,0.390909,0.187248
806.281046,0.384091,0.118547
806.314325,0.379545,0.215523
806.347605,0.688636,0.193606
806.380884,0.238636,0.335385
806.414163,0.675000,0.434993
806.447441,0.388636,0.182424
806.480720,0.243182,0.074091
806.513998,1.040909,0.200863
806.547275,1.795455,0.652368
806.580553,0.643182,0.241046
806.613830,0.270455,0.075198
806.647107,1.043182,0.273510
806.680383,1.522727,0.416480
806.713659,2.795455,0.697409
806.746935,10.327273,0.765663
806.780211,74.815909,1.268306
806.813486,301.445455,11.882907
806.846761,482.634848,9.678473
806.880036,328.661364,7.385242
806.913310,97.212879,2.623714
806.946584,15.230303,0.832807
806.979858,2.779545,0.195041
807.013132,1.377273,0.282724
807.046405,0.268182,0.102071
807.079678,1.425000,0.181573
807.112951,0.418182,0.199198
807.146223,0.045455,0.250598
807.179495,0.177273,0.128102
807.212767,0.040909,0.310067
807.246038,1.322727,0.207914
807.279309,0.170455,0.040956
807.312580,0.675000,0.245904
807.345850,-0.118182,0.070050
807.379121,0.379545,0.253333
807.412390,0.484091,0.048466
807.445660,0.920455,0.369238
807.478929,0.486364,0.134936
807.512198,0.472727,0.246777
807.545467,0.279545,0.325046
807.578735,-0.009091,0.139620
807.612004,-0.134091,0.203568
807.645271,0.131818,0.281167
807.678539,0.425000,0.517657
807.711806,0.886364,0.276797
807.745073,0.472727,0.488494
807.778340,0.334091,0.114152
807.811606,1.127273,0.173830
807.844872,1.063636,0.195322
807.878138,0.347727,0.261559
807.911403,-0.172727,0.096477
807.944668,0.765909,0.329371
807.977933,0.395455,0.129306
808.011197,0.227273,0.169863
808.044462,0.795455,0.200323
808.077725,0.145455,0.089593
808.110989,0.665909,0.307052
808.144252,0.686364,0.067611
808.177515,0.915909,0.371983
808.210778,0.213636,0.072478
808.244040,0.859091,0.323343
808.277302,0.006818,0.214875
808.310564,0.204545,0.200323
808.343826,0.697727,0.156682
808.377087,0.697727,0.198584
808.410348,0.706818,0.127612
808.443608,0.193182,0.077097
808.476869,0.272727,0.120089
808.510129,0.104545,0.235762
808.543388,0.695455,0.271389
808.576648,0.940909,0.292723
808.609907,1.300000,0.325960
808.643165,1.440909,0.501707
808.676424,5.506818,0.642112
808.709682,29.754545,2.170925
808.742940,195.493939,5.652539
808.776197,609.413636,17.887608
808.809455,664.236364,12.606333
808.842712,273.661364,8.080130
808.875968,52.095455,2.735273
808.909225,6.461364,0.874048
808.942481,1.850000,0.626997
808.975736,0.954545,0.511419
809.008992,0.668182,0.248560
809.042247,0.218182,0.255437
809.075502,0.036364,0.285189
809.108756,-0.725000,0.138632
809.142011,-0.025000,0.073951
809.175265,0.697727,0.256292
809.208518,0.865909,0.150631
809.241772,0.975000,0.324760
809.275025,0.381818,0.101792
809.308277,0.377273,0.169360
809.341530,0.984091,0.394806
809.374782,1.075000,0.248433
809.408034,1.695455,0.353415
809.441285,0.663636,0.325389
809.474536,-0.025000,0.159589
809.507787,0.170455,0.292668
809.541038,0.452273,0.190405
809.574288,0.429545,0.289938
809.607538,0.663636,0.235181
809.640788,1.077273,0.181035
809.674037,0.909091,0.405578
809.707286,1.009091,0.313439
809.740535,1.415909,0.356222
809.773783,1.122727,0.345163
809.807032,1.000000,0.348210
809.840279,0.115909,0.250152
809.873527,-0.075000,0.073951
809.906774,0.797727,0.313708
809.940021,1.002273,0.161679
809.973268,0.493182,0.148212
810.006514,0.247727,0.148490
810.039760,0.977273,0.628889
810.073006,0.718182,0.311372
810.106251,0.856818,0.291217
810.139497,1.359091,0.243564
810.172741,0.359091,0.323694
810.205986,0.509091,0.147535
810.239230,-0.043182,0.225204
810.272474,1.281818,0.241252
810.305718,0.631818,0.097516
810.338961,0.918182,0.467243
810.372204,1.454545,0.505384
810.405447,1.036364,0.465848
810.438689,1.354545,0.363167
810.471931,1.129545,0.266450
810.505173,1.875000,0.710084
810.538414,1.934091,0.212846
810.571656,2.425000,0.288043
810.604897,3.286364,0.422819
810.638137,8.052273,0.874125
810.671377,63.211364,1.334756
810.704617,420.213636,15.010308
810.737857,1182.627273,20.766105
810.771096,1112.934091,24.679661
810.804335,387.925000,7.250981
810.837574,55.590152,3.460983
810.870813,8.950000,0.641775
810.904051,2.413636,0.683426
810.937288,1.429545,0.242562
810.970526,0.743182,0.196071
811.003763,0.145455,0.207429
811.037000,-0.197727,0.094167
811.070237,1.347727,0.236459
811.103473,0.638636,0.322605
811.136709,-0.136364,0.133027
811.169945,-0.068182,0.085068
811.203180,0.665909,0.220194
811.236415,0.547727,0.507336
811.269650,-0.009091,0.312713
811.302884,0.254545,0.327289
811.336119,0.350000,0.207666
811.369352,0.229545,0.263663
811.402586,1.627273,0.555337
811.435819,0.656818,0.305500
811.469052,0.095455,0.366826
811.502285,-0.468182,0.417743
811.535517,-2.131818,0.316171
811.568749,0.327273,0.653914
811.601981,0.679545,0.395969
811.635212,0.190909,0.255740
811.668443,0.736364,0.432189
811.701674,1.418182,0.343641
811.734905,0.818182,0.593064
811.768135,0.670455,0.240445
811.801365,1.379545,0.352066
811.834594,0.861364,0.591690
811.867824,0.931818,0.489281
811.901053,0.140909,0.334740
811.934281,0.931818,0.261699
811.967510,0.297727,0.128379
812.000738,0.413636,0.341991
812.033965,-0.075000,0.096014
812.067193,-0.034091,0.361448
812.100420,0.506818,0.120278
812.133647,0.331818,0.225550
812.166873,-1.002273,0.136529
812.200099,0.247727,0.135275
812.233325,0.045455,0.101487
812.266551,0.600000,0.524404
812.299776,0.415909,0.075129
812.333001,0.218182,0.094857
812.366226,0.613636,0.252539
812.399450,0.081818,0.138655
812.432674,0.443182,0.249842
812.465898,0.081818,0.367606
812.499121,0.715909,0.256433
812.532345,0.259091,0.131445
812.565567,1.827273,0.074551
812.598790,1.212879,0.184769
812.632012,11.327273,0.501351
812.665234,110.156818,2.658697
812.698456,423.773485,3.269799
812.731677,522.661364,14.043491
812.764898,188.545455,11.188522
812.798119,34.753030,1.069138
812.831339,3.718182,0.544933
812.864559,1.490909,0.302930
812.897779,0.288636,0.094660
812.930998,0.172727,0.155910
812.964217,-0.004545,0.067535
812.997436,-0.290909,0.045907
813.030655,-0.118182,0.070050
813.063873,-0.093182,0.065978
813.097091,-0.100000,0.061237
813.130308,-0.088636,0.221527
813.163526,-0.027273,0.039756
813.196743,0.081818,0.174571
813.229959,0.125000,0.064952
813.263176,0.402273,0.213742
813.296392,-0.088636,0.138109
813.329607,-0.170455,0.054106
813.362823,-0.100000,0.050000
813.396038,0.250000,0.082916
813.429253,-0.215909,0.153249
813.462467,-0.168182,0.050769
813.495682,0.081818,0.185001
813.528895,0.134091,0.180803
813.562109,0.397727,0.232583
813.595322,0.679545,0.323293
813.628535,0.168182,0.050769
813.661748,-0.052273,0.073881
813.694960,-0.022727,0.107877
813.728172,-0.056818,0.143933
813.761384,-0.125000,0.113880
813.794596,-0.056818,0.268266
813.827807,-0.154545,0.145241
813.861017,0.152273,0.163079
813.894228,0.522727,0.182909
813.927438,0.465909,0.130850
813.960648,-0.027273,0.053203
813.993858,-0.052273,0.102266
814.027067,0.095455,0.077706
814.060276,-0.125000,0.041458
814.093485,-0.013636,0.172623
814.126693,-0.118182,0.208943
814.159901,-0.190909,0.207130
814.193109,-0.481818,0.127557
814.226316,0.220455,0.074438
814.259523,-0.027273,0.039756
814.292730,-0.122727,0.022384
814.325936,0.143182,0.037397
814.359143,0.095455,0.059483
814.392348,0.222727,0.204609
814.425554,-0.140909,0.083968
814.458759,-0.147727,0.056442
814.491964,-0.418182,0.046688
814.525169,0.154545,0.186668
814.558373,-0.006818,0.088103
814.591577,0.070455,0.062850
814.624781,0.238636,0.096444
814.657984,1.563636,0.466823
