#{
#    "background_file": "Backgrounds\\\\bg_787.999nm_16bin_197st_244en_10.0s_110g_4x_1_seq.txt",
#    "ccd_image_settings": [
#        1,
#        16,
#        1,
#        1600,
#        197,
#        244
#    ],
#    "ccd_temperature": "-88",
#    "cdRatios": {
#        "mean": 0.9272826326701984,
#        "std": 0.005752905259131477
#    },
#    "center_lambda": 788.0,
#    "comments": "",
#    "dark_region": 0.267176471573994,
#    "date": "11/17/19 14:41:19PM",
#    "eff_field": 1.5,
#    "exposure": 10.0,
#    "fel_lambda": "15.0",
#    "fel_pol": "H",
#    "fel_pulses": 41,
#    "fel_pyro_cal": "0.017",
#    "fel_reprate": "1.07",
#    "fel_transmission": "1.0",
#    "fel_transmission_fits": {
#        "A": 1.0,
#        "C": 0.0,
#        "Mu": 0.0
#    },
#    "fieldInt": {
#        "mean": 9364.287710227272,
#        "std": 360.44814048916544
#    },
#    "fieldStrength": {
#        "mean": 44.39298295454545,
#        "std": 0.852326574009759
#    },
#    "fpTime": {
#        "mean": 1.1429214707323219,
#        "std": 0.06931388361020335
#    },
#    "gain": 110,
#    "grating": 3,
#    "images_in_sequence": [
#        "hsg_SpotD_crystal16_an45_HAna189.txt",
#        "hsg_SpotD_crystal16_an45_HAna190.txt",
#        "hsg_SpotD_crystal16_an45_HAna191.txt",
#        "hsg_SpotD_crystal16_an45_HAna192.txt"
#    ],
#    "nir_lambda": "820.9918",
#    "nir_pola": "-45",
#    "nir_polg": "0",
#    "nir_power": "100.0",
#    "pulseEnergies": {
#        "mean": 2.025795454545455,
#        "std": 0.08838737234663036
#    },
#    "pyroVoltage": {
#        "mean": 0.12854876934539705,
#        "std": 0.006313715130430165
#    },
#    "rotatorAngle": 337.49999633788167,
#    "sample_Temp": "58",
#    "sample_name": "L001218.C3",
#    "series": "SpotD_16_-45",
#    "slits": "60",
#    "spec_step": "",
#    "window_trans": 0.92,
#    "y_max": 2,
#    "y_min": 1
#}
#
#
#
#
#
#
#
#
#
#
#
#
#
#
#
#
#
#
#
#
#
#
#
#
#
#
Wavelength,Signal,error
nm,arb. u.,arb.u.
Wavelength,SpotD_16_-45,error
761.200217,0.184091,0.328507
761.233859,-0.100000,0.061237
761.267500,0.172727,0.143380
761.301141,-0.022727,0.163210
761.334781,0.315909,0.247871
761.368422,-0.118182,0.070050
761.402062,-0.047727,0.055426
761.435702,-0.300000,0.093541
761.469342,0.743182,0.732780
761.502981,0.506818,0.325665
761.536620,-0.020455,0.071320
761.570259,-0.095455,0.059483
761.603898,-0.193182,0.046840
761.637537,0.327273,0.276115
761.671175,-0.218182,0.072443
761.704813,0.052273,0.054391
761.738451,0.004545,0.057541
761.772088,0.052273,0.134009
761.805726,-0.045455,0.187882
761.839363,-0.120455,0.017714
761.873000,-0.213636,0.231160
761.906636,-0.095455,0.047835
761.940273,0.240909,0.050052
761.973909,0.054545,0.112126
762.007545,0.790909,0.413074
762.041180,-0.159091,0.152273
762.074816,0.304545,0.374338
762.108451,-0.070455,0.080313
762.142086,0.272727,0.075309
762.175720,-0.002273,0.127044
762.209355,-0.222727,0.066066
762.242989,0.170455,0.040956
762.276623,0.254545,0.249234
762.310257,0.436364,0.098700
762.343890,-0.318182,0.024266
762.377524,-0.243182,0.022123
762.411157,-0.022727,0.095590
762.444789,-0.027273,0.053203
762.478422,0.197727,0.036980
762.512054,0.102273,0.116304
762.545686,0.479545,0.318512
762.579318,0.152273,0.274490
762.612950,0.002273,0.060334
762.646581,-0.015909,0.137209
762.680212,0.286364,0.119766
762.713843,0.563636,0.309825
762.747474,0.118182,0.070050
762.781104,-0.172727,0.042519
762.814734,-0.634091,0.088978
762.848364,-0.213636,0.180978
762.881994,0.184091,0.354143
762.915623,0.147727,0.090475
762.949252,-0.079545,0.085786
762.982881,0.254545,0.189388
763.016510,-0.027273,0.053203
763.050139,-0.195455,0.035574
763.083767,-0.145455,0.074343
763.117395,0.050000,0.147902
763.151023,0.225000,0.096014
763.184650,0.463636,0.102096
763.218277,-0.113636,0.220079
763.251904,-0.243182,0.041706
763.285531,-0.147727,0.075404
763.319158,0.170455,0.073671
763.352784,-0.120455,0.128700
763.386410,0.043182,0.161424
763.420036,-0.295455,0.080578
763.453661,0.577273,0.214373
763.487287,-0.327273,0.149966
763.520912,-1.002273,0.136529
763.554537,0.272727,0.120089
763.588161,0.177273,0.298178
763.621786,-0.168182,0.117590
763.655410,-0.047727,0.055426
763.689034,-0.145455,0.042153
763.722657,0.000000,0.000000
763.756281,0.145455,0.042153
763.789904,0.070455,0.146459
763.823527,-0.072727,0.021076
763.857150,0.286364,0.290420
763.890772,-0.265909,0.111636
763.924394,0.131818,0.128665
763.958016,0.025000,0.108253
763.991638,0.220455,0.114197
764.025260,0.097727,0.035410
764.058881,0.263636,0.055111
764.092502,-0.390909,0.061741
764.126123,-0.027273,0.039756
764.159743,-0.195455,0.035574
764.193363,-0.118182,0.131936
764.226983,0.077273,0.094993
764.260603,0.075000,0.064952
764.294223,0.000000,0.141421
764.327842,0.311364,0.105987
764.361461,-0.052273,0.054391
764.395080,0.025000,0.113880
764.428699,-0.113636,0.104570
764.462317,0.377273,0.237029
764.495935,-0.070455,0.094605
764.529553,-0.168182,0.036435
764.563170,0.165909,0.067142
764.596788,0.315909,0.037945
764.630405,-0.172727,0.096477
764.664022,-0.240909,0.070747
764.697638,0.240909,0.050052
764.731255,-0.070455,0.051963
764.764871,-0.097727,0.035410
764.798487,-0.172727,0.042519
764.832103,-0.022727,0.095590
764.865718,-0.025000,0.021651
764.899333,0.250000,0.275000
764.932948,-0.120455,0.095204
764.966563,-0.100000,0.136931
765.000177,0.372727,0.249069
765.033792,-0.047727,0.023918
765.067406,0.127273,0.142186
765.101019,0.081818,0.267816
765.134633,-0.395455,0.073960
765.168246,0.309091,0.118007
765.201859,0.100000,0.050000
765.235472,0.120455,0.039545
765.269084,0.170455,0.054106
765.302697,-0.040909,0.128826
765.336309,0.250000,0.219374
765.369920,0.125000,0.096014
765.403532,-0.072727,0.041161
765.437143,-0.125000,0.064952
765.470754,0.050000,0.025000
765.504365,-0.095455,0.059483
765.537976,0.027273,0.063879
765.571586,-0.136364,0.192391
765.605196,-0.013636,0.243139
765.638806,-0.047727,0.089845
765.672416,0.127273,0.087846
765.706025,0.100000,0.117260
765.739634,0.170455,0.142925
765.773243,0.497727,0.318918
765.806851,0.200000,0.127475
765.840460,0.313636,0.198925
765.874068,0.245455,0.027461
765.907676,-0.293182,0.061521
765.941284,0.254545,0.225539
765.974891,0.097727,0.070738
766.008498,-0.077273,0.052667
766.042105,-0.100000,0.061237
766.075712,-0.390909,0.061741
766.109318,-0.168182,0.061867
766.142924,0.029545,0.141325
766.176530,-0.429545,0.177662
766.210136,-0.122727,0.041845
766.243741,0.793182,0.211141
766.277347,-0.154545,0.111108
766.310951,-0.100000,0.035355
766.344556,0.243182,0.134125
766.378161,0.000000,0.061237
766.411765,0.063636,0.134725
766.445369,0.002273,0.060334
766.478973,-0.065909,0.170451
766.512576,0.270455,0.248807
766.546179,-0.002273,0.116791
766.579782,-0.095455,0.047835
766.613385,0.179545,0.192697
766.646988,-0.370455,0.058155
766.680590,-0.000000,0.093541
766.714192,0.125000,0.108253
766.747794,0.090909,0.099741
766.781395,0.215909,0.047279
766.814996,-0.315909,0.072040
766.848597,-0.170455,0.054106
766.882198,0.245455,0.044768
766.915799,0.236364,0.233727
766.949399,0.075000,0.108253
766.982999,-0.029545,0.061015
767.016599,-0.295455,0.038636
767.050198,0.002273,0.060334
767.083798,0.052273,0.054391
767.117397,0.000000,0.070711
767.150996,-0.025000,0.021651
767.184594,-0.415909,0.056075
767.218193,-0.143182,0.071753
767.251791,-0.145455,0.124607
767.285389,-0.315909,0.062768
767.318986,0.050000,0.055902
767.352583,0.320455,0.097562
767.386181,-0.145455,0.108521
767.419777,0.036364,0.215250
767.453374,0.450000,0.207666
767.486970,-0.459091,0.062200
767.520567,0.165909,0.090874
767.554162,0.318182,0.300980
767.587758,0.097727,0.061269
767.621353,0.147727,0.026186
767.654949,0.120455,0.072896
767.688543,0.125000,0.054486
767.722138,0.238636,0.147653
767.755732,0.047727,0.074646
767.789327,-0.220455,0.023261
767.822921,-0.268182,0.020455
767.856514,-0.145455,0.074343
767.890108,0.220455,0.134317
767.923701,-0.018182,0.084060
767.957294,0.050000,0.103078
767.990886,0.027273,0.039756
768.024479,0.172727,0.096477
768.058071,0.188636,0.104366
768.091663,-0.250000,0.090139
768.125255,-0.125000,0.041458
768.158846,-0.018182,0.076263
768.192437,-0.420455,0.092172
768.226028,-0.240909,0.050052
768.259619,-0.097727,0.001968
768.293209,0.038636,0.134778
768.326799,0.077273,0.072621
768.360389,-0.140909,0.097727
768.393979,-0.093182,0.065978
768.427568,0.397727,0.155225
768.461158,-0.100000,0.035355
768.494747,-0.104545,0.082666
768.528335,0.000000,0.061237
768.561924,0.495455,0.211364
768.595512,0.302273,0.233558
768.629100,0.095455,0.059483
768.662688,-0.022727,0.019682
768.696275,-0.168182,0.050769
768.729862,-0.170455,0.020674
768.763449,0.022727,0.155362
768.797036,-0.045455,0.133415
768.830623,0.190909,0.073504
768.864209,0.018182,0.076263
768.897795,0.054545,0.071220
768.931381,-0.020455,0.071320
768.964966,-0.343182,0.028815
768.998551,0.022727,0.073399
769.032136,-0.143182,0.071753
769.065721,0.229545,0.178937
769.099305,0.129545,0.183018
769.132890,-0.056818,0.097297
769.166474,0.125000,0.041458
769.200057,-0.200000,0.100000
769.233641,-0.054545,0.071220
769.267224,-0.118182,0.070050
769.300807,-0.272727,0.066494
769.334390,0.100000,0.145774
769.367972,0.700000,0.443001
769.401555,-0.163636,0.099845
769.435137,0.075000,0.096014
769.468718,0.300000,0.206155
769.502300,0.043182,0.126719
769.535881,-0.250000,0.090139
769.569462,-0.365909,0.073601
769.603043,-0.218182,0.063229
769.636623,0.227273,0.289574
769.670204,-0.268182,0.073610
769.703784,0.497727,0.238135
769.737364,0.688636,0.384035
769.770943,0.150000,0.129904
769.804522,0.025000,0.113880
769.838101,0.002273,0.176466
769.871680,-0.204545,0.118770
769.905259,-0.443182,0.060591
769.938837,0.131818,0.177637
769.972415,-0.018182,0.104001
770.005993,0.368182,0.067151
770.039570,0.070455,0.112695
770.073147,0.111364,0.131794
770.106724,-0.065909,0.205789
770.140301,0.150000,0.103078
770.173878,0.202273,0.319629
770.207454,-0.022727,0.095590
770.241030,0.102273,0.077631
770.274606,0.100000,0.093541
770.308181,0.368182,0.097516
770.341757,0.052273,0.073881
770.375332,0.070455,0.062850
770.408906,0.197727,0.079797
770.442481,-0.243182,0.074091
770.476055,-0.193182,0.110426
770.509629,0.222727,0.139157
770.543203,0.168182,0.061867
770.576776,0.438636,0.174464
770.610350,0.200000,0.070711
770.643923,-0.147727,0.114829
770.677495,0.100000,0.266927
770.711068,0.102273,0.157406
770.744640,-0.172727,0.042519
770.778212,0.179545,0.164718
770.811784,-0.168182,0.061867
770.845356,-0.170455,0.089036
770.878927,0.370455,0.182707
770.912498,-0.072727,0.089130
770.946069,0.172727,0.188568
770.979639,0.256818,0.172319
771.013209,0.272727,0.156274
771.046779,-0.411364,0.083157
771.080349,0.147727,0.056442
771.113919,0.406818,0.186568
771.147488,-0.002273,0.078360
771.181057,0.002273,0.033767
771.214626,-0.043182,0.126719
771.248194,0.154545,0.244632
771.281762,-0.193182,0.030724
771.315330,-0.045455,0.072798
771.348898,0.006818,0.101302
771.382465,-0.068182,0.135965
771.416033,0.050000,0.082916
771.449600,0.436364,0.131308
771.483166,0.606818,0.064232
771.516733,0.077273,0.094993
771.550299,0.125000,0.216145
771.583865,0.288636,0.154792
771.617431,0.125000,0.138632
771.650996,0.120455,0.095204
771.684562,0.395455,0.178101
771.718127,0.175000,0.240767
771.751691,-0.047727,0.023918
771.785256,-0.222727,0.043182
771.818820,-0.006818,0.123540
771.852384,0.170455,0.113699
771.885948,0.068182,0.092123
771.919511,-0.018182,0.238885
771.953074,0.195455,0.035574
771.986637,0.647727,0.392115
772.020200,0.147727,0.026186
772.053762,0.025000,0.041458
772.087325,-0.093182,0.065978
772.120887,-0.159091,0.156323
772.154448,0.125000,0.054486
772.188010,-0.075000,0.064952
772.221571,-0.243182,0.041706
772.255132,-0.022727,0.073399
772.288692,-0.147727,0.083281
772.322253,0.270455,0.327310
772.355813,-0.213636,0.128464
772.389373,0.038636,0.262387
772.422933,-0.388636,0.045041
772.456492,0.206818,0.198948
772.490051,0.486364,0.256335
772.523610,-0.025000,0.054486
772.557169,-0.102273,0.059385
772.590727,-0.202273,0.110286
772.624285,-0.097727,0.035410
772.657843,-0.002273,0.060334
772.691401,-0.413636,0.062366
772.724958,0.097727,0.093562
772.758515,0.077273,0.052667
772.792072,0.386364,0.093679
772.825629,-0.070455,0.038081
772.859185,-0.045455,0.052911
772.892741,-0.018182,0.214047
772.926297,0.270455,0.273189
772.959853,0.161364,0.123331
772.993408,-0.656818,0.076357
773.026963,-0.102273,0.098877
773.060518,-0.025000,0.041458
773.094073,-0.102273,0.105008
773.127627,0.388636,0.320307
773.161181,0.127273,0.087846
773.194735,0.495455,0.408592
773.228289,-0.190909,0.064443
773.261842,0.538636,0.286803
773.295395,0.900000,0.450000
773.328948,0.513636,0.296998
773.362500,0.390909,0.122727
773.396053,-0.197727,0.087278
773.429605,-0.097727,0.035410
773.463157,-0.120455,0.039545
773.496708,0.122727,0.041845
773.530260,-0.193182,0.030724
773.563811,-0.197727,0.062189
773.597361,0.115909,0.102619
773.630912,0.025000,0.113880
773.664462,0.147727,0.043997
773.698012,-0.077273,0.072621
773.731562,0.102273,0.145006
773.765111,0.025000,0.054486
773.798661,0.256818,0.153114
773.832210,0.047727,0.055426
773.865758,0.052273,0.073881
773.899307,-0.050000,0.025000
773.932855,0.050000,0.055902
773.966403,-0.245455,0.075856
773.999951,-0.068182,0.092123
774.033498,0.168182,0.093955
774.067046,0.215909,0.149115
774.100593,0.197727,0.106619
774.134139,0.020455,0.087101
774.167686,0.097727,0.061269
774.201232,0.190909,0.064443
774.234778,0.072727,0.054261
774.268324,0.025000,0.054486
774.301869,0.025000,0.021651
774.335414,-0.315909,0.062768
774.368959,-0.097727,0.001968
774.402504,0.450000,0.391312
774.436048,-0.102273,0.105008
774.469592,-0.027273,0.039756
774.503136,0.147727,0.167886
774.536680,0.152273,0.188002
774.570223,0.195455,0.061364
774.603766,0.177273,0.128102
774.637309,0.197727,0.062189
774.670852,0.472727,0.325421
774.704394,-0.122727,0.054782
774.737936,-0.268182,0.073610
774.771478,0.159091,0.246347
774.805020,0.729545,0.547386
774.838561,0.490909,0.273352
774.872102,0.168182,0.050769
774.905643,0.150000,0.082916
774.939183,0.218182,0.128444
774.972724,0.122727,0.124503
775.006264,0.593182,0.203466
775.039804,1.061364,0.367555
775.073343,2.113636,0.592494
775.106882,0.334091,0.309815
775.140421,0.422727,0.104125
775.173960,-0.461364,0.047497
775.207499,-0.290909,0.091419
775.241037,-0.020455,0.100432
775.274575,-0.020455,0.100432
775.308113,-0.050000,0.055902
775.341650,0.175000,0.073951
775.375187,0.000000,0.093541
775.408724,-0.193182,0.084817
775.442261,0.054545,0.112126
775.475798,0.004545,0.103976
775.509334,0.125000,0.041458
775.542870,-0.068182,0.085068
775.576405,-0.170455,0.020674
775.609941,0.247727,0.189207
775.643476,0.054545,0.132561
775.677011,-0.213636,0.112930
775.710546,0.293182,0.093728
775.744080,0.215909,0.047279
775.777614,0.268182,0.108020
775.811148,0.104545,0.124835
775.844682,-0.120455,0.063748
775.878215,-0.413636,0.106721
775.911748,0.384091,0.080953
775.945281,0.472727,0.309675
775.978814,-0.320455,0.044926
776.012346,0.000000,0.061237
776.045878,-0.072727,0.081818
776.079410,0.095455,0.047835
776.112941,0.225000,0.089268
776.146473,-0.029545,0.070519
776.180004,-0.036364,0.146057
776.213535,0.202273,0.104465
776.247065,0.027273,0.063879
776.280595,0.250000,0.246221
776.314125,0.447727,0.254736
776.347655,-0.218182,0.094857
776.381185,-0.365909,0.054010
776.414714,0.445455,0.190286
776.448243,-0.125000,0.054486
776.481772,0.043182,0.110940
776.515300,0.065909,0.113152
776.548828,0.179545,0.120963
776.582356,0.109091,0.177593
776.615884,-0.177273,0.117941
776.649411,0.050000,0.143614
776.682938,0.034091,0.178590
776.716465,0.052273,0.054391
776.749992,-0.045455,0.052911
776.783518,0.256818,0.162126
776.817044,1.870455,0.410205
776.850570,0.711364,0.118154
776.884096,1.411364,0.303175
776.917621,0.147727,0.195412
776.951146,0.868182,0.318141
776.984671,-0.363636,0.149517
777.018196,0.027273,0.039756
777.051720,-0.002273,0.048890
777.085244,0.072727,0.113773
777.118768,-0.263636,0.239727
777.152292,0.270455,0.248807
777.185815,0.556818,0.342170
777.219338,-0.002273,0.136529
777.252861,-0.072727,0.054261
777.286383,0.093182,0.102971
777.319905,0.134091,0.283980
777.353427,0.202273,0.126147
777.386949,0.165909,0.057079
777.420471,0.372727,0.238820
777.453992,-0.020455,0.094003
777.487513,0.275000,0.210283
777.521033,-0.297727,0.080506
777.554554,-0.120455,0.017714
777.588074,0.095455,0.077706
777.621594,0.793182,0.431476
777.655114,0.190909,0.088898
777.688633,0.072727,0.021076
777.722152,0.097727,0.061269
777.755671,0.000000,0.000000
777.789190,0.404545,0.297745
777.822708,-0.000000,0.093541
777.856226,0.102273,0.077631
777.889744,0.347727,0.135694
777.923261,0.075000,0.129301
777.956779,0.527273,0.402818
777.990296,0.022727,0.019682
778.023812,-0.047727,0.055426
778.057329,-0.095455,0.110852
778.090845,0.006818,0.101302
778.124361,0.045455,0.128645
778.157877,-0.127273,0.094694
778.191392,-0.118182,0.060473
778.224908,0.127273,0.112769
778.258423,0.165909,0.090874
778.291937,-0.020455,0.245126
778.325452,-0.118182,0.122094
778.358966,0.102273,0.136112
778.392480,-0.002273,0.078360
778.425993,0.145455,0.195005
778.459507,0.102273,0.098877
778.493020,-0.052273,0.054391
778.526533,0.079545,0.085786
778.560045,-0.338636,0.099346
778.593558,0.804545,0.417124
778.627070,1.311364,0.465619
778.660582,1.483333,0.268095
778.694093,2.150000,0.465698
778.727605,2.431818,0.661153
778.761116,0.575000,0.181573
778.794626,0.250000,0.246221
778.828137,0.197727,0.094167
778.861647,0.336364,0.146833
778.895157,0.200000,0.079057
778.928667,-0.050000,0.025000
778.962176,0.300000,0.206155
778.995686,0.000000,0.035355
779.029194,0.075000,0.041458
779.062703,0.000000,0.035355
779.096212,-0.018182,0.104001
779.129720,0.095455,0.047835
779.163228,-0.195455,0.035574
779.196735,0.097727,0.035410
779.230243,-0.681818,0.055577
779.263750,0.622727,0.399774
779.297257,0.675000,0.585635
779.330763,-0.075000,0.064952
779.364269,-0.075000,0.021651
779.397776,0.102273,0.069113
779.431281,0.177273,0.080063
779.464787,0.002273,0.048890
779.498292,0.043182,0.077831
779.531797,0.170455,0.040956
779.565302,0.200000,0.242384
779.598806,0.197727,0.087278
779.632311,0.275000,0.216145
779.665814,0.122727,0.022384
779.699318,0.052273,0.081905
779.732822,0.300000,0.150000
779.766325,0.286364,0.102927
779.799828,0.225000,0.227418
779.833330,0.288636,0.187645
779.866833,-0.268182,0.054022
779.900335,0.243182,0.054676
779.933837,0.068182,0.059047
779.967338,0.206818,0.432528
780.000840,0.286364,0.082729
780.034341,-0.293182,0.035845
780.067841,0.095455,0.032221
780.101342,0.109091,0.161508
780.134842,0.095455,0.032221
780.168342,-0.095455,0.085371
780.201842,0.286364,0.210580
780.235341,-0.025000,0.054486
780.268841,0.025000,0.073951
780.302340,0.163636,0.086423
780.335838,0.195455,0.093624
780.369337,0.275000,0.213234
780.402835,0.713636,0.243606
780.436333,1.368182,0.436370
780.469830,3.584091,0.463518
780.503328,2.759091,0.674541
780.536825,4.860606,0.648942
780.570322,2.550000,1.058596
780.603818,0.943182,0.201784
780.637315,-0.104545,0.102877
780.670811,0.065909,0.138034
780.704306,-0.115909,0.151759
780.737802,0.250000,0.246221
780.771297,-0.218182,0.072443
780.804792,0.047727,0.023918
780.838287,0.002273,0.033767
780.871781,0.120455,0.039545
780.905276,0.000000,0.154110
780.938770,-0.313636,0.067611
780.972263,-0.070455,0.080313
781.005757,-0.002273,0.033767
781.039250,0.050000,0.055902
781.072743,0.497727,0.411350
781.106235,-0.020455,0.150288
781.139728,-0.195455,0.003936
781.173220,0.122727,0.022384
781.206712,0.052273,0.073881
781.240203,0.072727,0.108140
781.273694,-0.072727,0.021076
781.307185,-0.070455,0.107005
781.340676,0.225000,0.096014
781.374167,0.075000,0.064952
781.407657,0.397727,0.232583
781.441147,0.052273,0.113835
781.474636,0.029545,0.122364
781.508126,0.406818,0.465187
781.541615,0.072727,0.021076
781.575104,0.031818,0.090253
781.608593,0.125000,0.147373
781.642081,-0.050000,0.055902
781.675569,-0.070455,0.051963
781.709057,0.097727,0.061269
781.742544,0.225000,0.138632
781.776032,-0.118182,0.149690
781.809519,-0.022727,0.040465
781.843006,0.047727,0.023918
781.876492,-0.118182,0.060473
781.909978,0.225000,0.113880
781.943464,0.025000,0.021651
781.976950,0.002273,0.060334
782.010435,-0.029545,0.061015
782.043921,-0.022727,0.073399
782.077406,0.222727,0.114519
782.110890,-0.031818,0.103178
782.144375,0.025000,0.041458
782.177859,0.131818,0.138039
782.211343,-0.172727,0.129645
782.244826,1.200000,0.322102
782.278309,2.829545,0.548113
782.311792,3.136364,0.304461
782.345275,5.634091,0.355903
782.378758,4.865909,0.738601
782.412240,1.609091,0.302930
782.445722,0.720455,0.201066
782.479204,0.295455,0.118291
782.512685,-0.245455,0.027461
782.546166,-0.047727,0.023918
782.579647,0.040909,0.128826
782.613128,0.193182,0.164906
782.646608,-0.002273,0.060334
782.680088,0.211364,0.102720
782.713568,-0.195455,0.070820
782.747048,0.027273,0.063879
782.780527,-0.243182,0.082094
782.814006,-0.025000,0.041458
782.847485,0.054545,0.150241
782.880963,-0.052273,0.159557
782.914442,-0.047727,0.074646
782.947920,-0.095455,0.059483
782.981397,0.509091,0.147535
783.014875,0.170455,0.073671
783.048352,0.029545,0.154022
783.081829,0.411364,0.331808
783.115306,0.061364,0.144148
783.148782,-0.052273,0.054391
783.182258,0.034091,0.231514
783.215734,0.179545,0.188825
783.249209,-0.443182,0.060591
783.282685,0.490909,0.114090
783.316160,0.254545,0.167751
783.349635,0.004545,0.076230
783.383109,-0.265909,0.049624
783.416583,-0.190909,0.073504
783.450057,0.125000,0.113880
783.483531,-0.072727,0.054261
783.517004,0.325000,0.258300
783.550477,0.027273,0.053203
783.583950,0.190909,0.073504
783.617423,0.197727,0.051162
783.650895,0.388636,0.057260
783.684367,0.079545,0.153653
783.717839,-0.759091,0.079090
783.751311,-0.102273,0.092340
783.784782,-0.002273,0.033767
783.818253,-0.195455,0.093624
783.851724,0.290909,0.076534
783.885194,0.365909,0.142888
783.918665,-0.022727,0.107877
783.952134,0.370455,0.202193
783.985604,0.175000,0.102317
784.019074,0.386364,0.206218
784.052543,0.163636,0.187000
784.086012,0.911364,0.205562
784.119480,3.368182,0.109587
784.152948,6.818182,0.692671
784.186416,7.304545,0.774680
784.219884,3.395455,0.414117
784.253352,2.302273,0.582806
784.286819,0.525000,0.213234
784.320286,0.093182,0.074854
784.353753,0.325000,0.174553
784.387219,0.150000,0.167705
784.420685,0.025000,0.021651
784.454151,0.025000,0.041458
784.487617,-0.122727,0.074169
784.521082,-0.195455,0.035574
784.554547,0.165909,0.067142
784.588012,-0.170455,0.020674
784.621477,0.050000,0.055902
784.654941,0.095455,0.059483
784.688405,0.147727,0.056442
784.721869,0.222727,0.181974
784.755332,0.225000,0.224653
784.788795,0.077273,0.094993
784.822258,0.225000,0.155624
784.855721,0.145455,0.074343
784.889183,-0.002273,0.060334
784.922646,-0.127273,0.062984
784.956107,0.152273,0.101709
784.989569,0.045455,0.072798
785.023030,-0.222727,0.082853
785.056491,0.000000,0.035355
785.089952,0.100000,0.117260
785.123413,0.077273,0.133318
785.156873,-0.172727,0.042519
785.190333,0.095455,0.110852
785.223792,0.200000,0.136931
785.257252,-0.025000,0.021651
785.290711,-0.072727,0.054261
785.324170,0.204545,0.346924
785.357629,0.104545,0.279435
785.391087,0.175000,0.151554
785.424545,0.045455,0.052911
785.458003,-0.004545,0.076230
785.491460,0.100000,0.086603
785.524918,-0.006818,0.088103
785.558375,-0.025000,0.041458
785.591831,0.243182,0.174612
785.625288,-0.025000,0.073951
785.658744,0.445455,0.093320
785.692200,0.756818,0.533461
785.725655,0.047727,0.055426
785.759111,0.170455,0.040956
785.792566,-0.147727,0.026186
785.826021,0.118182,0.070050
785.859475,-0.072727,0.147290
785.892930,1.270455,0.156220
785.926384,3.265909,0.460937
785.959837,4.443182,1.036071
785.993291,9.304545,1.958900
786.026744,9.261364,1.110224
786.060197,6.525000,0.690448
786.093649,2.845455,1.038883
786.127102,1.000000,0.623498
786.160554,0.563636,0.278944
786.194006,-0.002273,0.078360
786.227457,0.000000,0.035355
786.260909,0.381818,0.113409
786.294360,0.025000,0.054486
786.327810,-0.250000,0.103078
786.361261,0.268182,0.167088
786.394711,-0.050000,0.025000
786.428161,-0.145455,0.082322
786.461611,0.027273,0.039756
786.495060,0.252273,0.245420
786.528509,0.127273,0.137721
786.561958,0.052273,0.073881
786.595407,-0.045455,0.080930
786.628855,0.147727,0.056442
786.662303,0.025000,0.174553
786.695751,0.022727,0.040465
786.729198,0.020455,0.071320
786.762645,0.002273,0.033767
786.796092,-0.020455,0.071320
786.829539,0.050000,0.082916
786.862985,-0.270455,0.066368
786.896431,0.004545,0.091164
786.929877,0.100000,0.035355
786.963323,0.045455,0.039365
786.996768,0.245455,0.164329
787.030213,-0.075000,0.021651
787.063658,-0.238636,0.108634
787.097102,0.177273,0.154629
787.130547,0.159091,0.366656
787.163991,-0.102273,0.077631
787.197434,-0.147727,0.090475
787.230878,0.268182,0.088985
787.264321,0.122727,0.082165
787.297764,-0.075000,0.041458
787.331206,0.252273,0.203390
787.364648,0.050000,0.025000
787.398090,0.320455,0.168132
787.431532,0.147727,0.056442
787.464974,-0.145455,0.022953
787.498415,-0.290909,0.148686
787.531856,0.068182,0.085068
787.565296,-0.263636,0.089650
787.598737,0.047727,0.055426
787.632177,0.577273,0.130736
787.665617,-0.197727,0.062189
787.699056,0.120455,0.039545
787.732496,-0.118182,0.093043
787.765935,1.204545,0.346924
787.799373,4.943182,0.622340
787.832812,11.688636,0.244915
787.866250,12.359091,0.596966
787.899688,11.088636,0.295391
787.933126,5.503030,0.721141
787.966563,1.145455,0.384447
788.000000,0.654545,0.168764
788.033437,0.186364,0.127131
788.066873,0.197727,0.094167
788.100310,0.390909,0.093872
788.133746,0.225000,0.096014
788.167181,0.645455,0.279129
788.200617,0.245455,0.044768
788.234052,0.259091,0.136117
788.267487,-0.195455,0.035574
788.300921,0.025000,0.021651
788.334356,0.225000,0.073951
788.367790,0.215909,0.068813
788.401224,0.052273,0.054391
788.434657,-0.179545,0.110145
788.468090,-0.025000,0.089268
788.501523,0.195455,0.070820
788.534956,0.275000,0.134048
788.568389,0.372727,0.083876
788.601821,-0.075000,0.073951
788.635253,0.120455,0.039545
788.668684,0.175000,0.151554
788.702116,0.227273,0.183993
788.735547,0.243182,0.174612
788.768977,0.068182,0.068823
788.802408,0.920455,0.385204
788.835838,-0.125000,0.041458
788.869268,0.027273,0.039756
788.902698,0.170455,0.113699
788.936127,0.245455,0.144063
788.969556,0.097727,0.070738
789.002985,0.475000,0.245904
789.036414,0.172727,0.108664
789.069842,0.270455,0.164027
789.103270,0.075000,0.041458
789.136698,-0.145455,0.022953
789.170125,0.022727,0.064323
789.203552,0.395455,0.096021
789.236979,0.247727,0.076153
789.270406,0.200000,0.122474
789.303832,0.272727,0.246316
789.337258,0.043182,0.077831
789.370684,-0.140909,0.083968
789.404110,-0.100000,0.050000
789.437535,0.197727,0.036980
789.470960,0.197727,0.094167
789.504385,0.086364,0.159626
789.537809,0.077273,0.123587
789.571233,0.565909,0.203288
789.604657,2.152273,0.780300
789.638081,3.865909,0.834530
789.671504,9.015909,0.919898
789.704927,17.827273,1.295837
789.738350,17.596212,1.100900
789.771772,12.125000,0.649399
789.805195,4.470455,0.337397
789.838617,1.529545,0.245126
789.872038,0.554545,0.214962
789.905460,-0.340909,0.054403
789.938881,0.061364,0.144148
789.972302,0.093182,0.090017
790.005722,0.050000,0.090139
790.039143,0.175000,0.143069
790.072563,0.047727,0.055426
790.105982,0.075000,0.096014
790.139402,0.247727,0.135275
790.172821,-0.168182,0.137213
790.206240,0.172727,0.042519
790.239658,0.050000,0.075000
790.273077,0.202273,0.202270
790.306495,-0.143182,0.166278
790.339913,0.370455,0.135580
790.373330,-0.027273,0.063879
790.406747,-0.077273,0.101360
790.440164,0.072727,0.255821
790.473581,-0.025000,0.134048
790.506997,0.150000,0.167705
790.540414,0.227273,0.100515
790.573829,0.150000,0.103078
790.607245,0.297727,0.262643
790.640660,0.454545,0.235400
790.674075,0.622727,0.268922
790.707490,0.356818,0.163869
790.740904,0.186364,0.116885
790.774319,-0.075000,0.064952
790.807733,0.075000,0.129301
790.841146,0.047727,0.055426
790.874560,0.031818,0.195309
790.907973,0.213636,0.128464
790.941385,0.118182,0.070050
790.974798,0.025000,0.041458
791.008210,0.143182,0.100740
791.041622,0.195455,0.294097
791.075034,0.002273,0.060334
791.108445,0.038636,0.125160
791.141856,0.197727,0.062189
791.175267,0.131818,0.176674
791.208678,0.125000,0.054486
791.242088,0.100000,0.035355
791.275498,0.856818,0.112466
791.308908,0.047727,0.055426
791.342317,0.200000,0.093541
791.375726,0.195455,0.061364
791.409135,-0.047727,0.023918
791.442544,-0.015909,0.162253
791.475952,1.468182,0.509421
791.509360,6.113636,0.351333
791.542768,19.463636,0.685791
791.576176,31.227273,1.821585
791.609583,34.163636,1.523965
791.642990,18.647727,1.110745
791.676396,4.597727,0.258500
791.709803,3.225000,0.877763
791.743209,0.477273,0.266375
791.776615,0.047727,0.074646
791.810020,0.043182,0.069337
791.843425,-0.054545,0.071220
791.876830,-0.463636,0.040909
791.910235,0.125000,0.081968
791.943640,-0.072727,0.021076
791.977044,-0.097727,0.093562
792.010448,0.163636,0.086423
792.043851,0.068182,0.085068
792.077254,-0.018182,0.091193
792.110658,-0.072727,0.041161
792.144060,0.150000,0.055902
792.177463,-0.072727,0.021076
792.210865,0.154545,0.140872
792.244267,0.402273,0.347398
792.277668,0.152273,0.142635
792.311070,0.147727,0.083281
792.344471,0.263636,0.065477
792.377872,0.295455,0.206743
792.411272,0.027273,0.063879
792.444672,0.102273,0.069113
792.478072,0.029545,0.093396
792.511472,0.204545,0.260493
792.544871,0.427273,0.144957
792.578271,0.079545,0.329559
792.611669,0.147727,0.164121
792.645068,0.677273,0.359673
792.678466,0.004545,0.202017
792.711864,0.125000,0.129301
792.745262,0.029545,0.070519
792.778659,0.588636,0.210749
792.812056,-0.150000,0.075000
792.845453,0.222727,0.171361
792.878850,0.102273,0.059385
792.912246,0.259091,0.116309
792.945642,-0.145455,0.042153
792.979038,0.077273,0.072621
793.012433,0.197727,0.051162
793.045829,0.050000,0.043301
793.079223,-0.238636,0.096444
793.112618,-0.193182,0.084817
793.146012,0.263636,0.089650
793.179406,0.050000,0.143614
793.212800,0.027273,0.063879
793.246194,0.075000,0.064952
793.279587,0.372727,0.185836
793.312980,0.515909,0.205789
793.346373,0.727273,0.275085
793.379765,5.167424,0.507855
793.413157,15.002273,0.614228
793.446549,35.034091,1.952786
793.479940,39.372727,1.966189
793.513332,22.501515,1.372967
793.546723,9.714394,0.759239
793.580113,2.050000,0.391312
793.613504,0.631818,0.130420
793.646894,-0.011364,0.136037
793.680284,0.022727,0.095590
793.713673,-0.147727,0.026186
793.747062,0.000000,0.061237
793.780451,-0.077273,0.072621
793.813840,0.120455,0.107535
793.847228,0.025000,0.054486
793.880617,0.045455,0.072798
793.914004,0.115909,0.082345
793.947392,-0.390909,0.071148
793.980779,-0.240909,0.050052
794.014166,0.027273,0.063879
794.047553,0.220455,0.108587
794.080940,0.315909,0.106957
794.114326,0.286364,0.147797
794.147712,0.102273,0.059385
794.181097,0.100000,0.050000
794.214483,0.270455,0.043643
794.247868,0.422727,0.254149
794.281252,-0.004545,0.057541
794.314637,-0.115909,0.143285
794.348021,0.240909,0.223618
794.381405,0.672727,0.344421
794.414788,0.322727,0.175295
794.448172,0.284091,0.109581
794.481555,0.477273,0.468849
794.514938,-0.095455,0.047835
794.548320,-0.022727,0.040465
794.581702,-0.047727,0.108729
794.615084,0.347727,0.091722
794.648466,0.450000,0.235850
794.681847,0.695455,0.205917
794.715228,0.404545,0.514686
794.748609,0.402273,0.416019
794.781990,-0.393182,0.341505
794.815370,0.172727,0.277347
794.848750,-0.095455,0.085371
794.882129,0.052273,0.147338
794.915509,-0.172727,0.096477
794.948888,-0.265909,0.078820
794.982267,0.150000,0.082916
795.015645,0.202273,0.319629
795.049023,0.275000,0.210283
795.082401,0.018182,0.084060
795.115779,-0.188636,0.148803
795.149156,0.456818,0.298920
795.182534,0.588636,0.210749
795.215910,1.452273,0.504979
795.249287,4.213636,0.609044
795.282663,17.922727,0.578046
795.316039,37.408333,0.906947
795.349415,59.200000,3.055528
795.382790,49.411364,2.539615
795.416165,23.720455,1.345437
795.449540,5.336364,0.836030
795.482915,1.163636,0.326957
795.516289,0.759091,0.350007
795.549663,-0.104545,0.082666
795.583037,-0.018182,0.104001
795.616410,0.100000,0.035355
795.649783,-0.340909,0.054403
795.683156,0.365909,0.142888
795.716529,0.397727,0.289991
795.749901,-0.045455,0.080930
795.783273,0.093182,0.102971
795.816645,-0.020455,0.180517
795.850016,0.015909,0.122785
795.883387,0.000000,0.093541
795.916758,-0.093182,0.065978
795.950129,-0.075000,0.064952
795.983499,-0.154545,0.105333
796.016869,-0.122727,0.074169
796.050239,-0.320455,0.044926
796.083608,0.295455,0.209745
796.116977,0.402273,0.160268
796.150346,-0.186364,0.257220
796.183714,0.093182,0.096711
796.217083,0.711364,0.150700
796.250451,-0.115909,0.089614
796.283818,0.322727,0.139565
796.317186,-0.100000,0.050000
796.350553,-0.025000,0.054486
796.383920,0.104545,0.174882
796.417286,0.350000,0.225000
796.450653,0.163636,0.122348
796.484019,0.100000,0.061237
796.517384,0.127273,0.194209
796.550750,0.097727,0.061269
796.584115,0.122727,0.041845
796.617480,0.195455,0.215094
796.650844,0.027273,0.138132
796.684209,0.000000,0.070711
796.717573,-0.243182,0.108349
796.750936,0.125000,0.054486
796.784300,0.252273,0.107150
796.817663,0.145455,0.042153
796.851026,-0.193182,0.046840
796.884388,-0.245455,0.044768
796.917751,0.127273,0.166484
796.951113,0.197727,0.137359
796.984474,0.095455,0.105063
797.017836,0.518182,0.344631
797.051197,0.029545,0.111682
797.084558,-0.068182,0.110619
797.117918,1.934091,0.385043
797.151279,6.661364,0.454629
797.184639,20.649242,0.814453
797.217998,43.359848,1.440222
797.251358,55.868182,0.528256
797.284717,43.493182,0.932574
797.318076,13.100000,0.988054
797.351434,5.077273,0.863161
797.384793,2.263636,0.285985
797.418151,0.722727,0.165971
797.451508,0.170455,0.054106
797.484866,0.395455,0.235521
797.518223,0.022727,0.073399
797.551580,-0.202273,0.091722
797.584936,-0.095455,0.032221
797.618292,-0.034091,0.121856
797.651648,-0.034091,0.116614
797.685004,-0.120455,0.123749
797.718360,0.409091,0.104743
797.751715,0.070455,0.062850
797.785069,0.120455,0.107535
797.818424,-0.052273,0.102266
797.851778,-0.052273,0.054391
797.885132,-0.045455,0.200748
797.918486,0.488636,0.127855
797.951839,0.070455,0.051963
797.985192,0.193182,0.168653
798.018545,0.468182,0.240190
798.051898,0.147727,0.043997
798.085250,0.402273,0.327010
798.118602,-0.095455,0.032221
798.151954,0.129545,0.219701
798.185305,0.418182,0.257431
798.218656,0.629545,0.413379
798.252007,0.447727,0.196282
798.285357,0.563636,0.277924
798.318708,0.311364,0.173157
798.352057,0.000000,0.106066
798.385407,0.143182,0.071753
798.418756,-0.022727,0.073399
798.452106,0.056818,0.103521
798.485454,0.140909,0.083968
798.518803,0.286364,0.096664
798.552151,-0.170455,0.020674
798.585499,0.390909,0.162210
798.618847,-0.045455,0.101487
798.652194,0.102273,0.105008
798.685541,0.295455,0.107204
798.718888,0.347727,0.160975
798.752234,0.640909,0.178391
798.785580,0.150000,0.103078
798.818926,-0.009091,0.109516
798.852272,0.140909,0.067458
798.885617,0.056818,0.171659
798.918962,0.327273,0.295787
798.952307,0.268182,0.073610
798.985651,0.575000,0.255869
799.018996,0.965909,0.389736
799.052339,4.501515,0.392498
799.085683,27.422727,1.767877
799.119026,66.275000,0.588828
799.152369,83.272727,3.459882
799.185712,54.400758,1.616089
799.219054,19.965909,1.524820
799.252397,5.661364,0.729169
799.285738,1.786364,0.233848
799.319080,0.140909,0.160626
799.352421,0.393182,0.147057
799.385762,0.502273,0.414240
799.419103,0.200000,0.070711
799.452443,0.325000,0.253414
799.485783,0.152273,0.159200
799.519123,0.095455,0.032221
799.552463,0.422727,0.148634
799.585802,0.195455,0.035574
799.619141,0.559091,0.126152
799.652480,0.136364,0.173771
799.685818,-0.290909,0.084306
799.719156,0.495455,0.214300
799.752494,0.572727,0.183374
799.785831,0.070455,0.062850
799.819169,0.447727,0.176144
799.852506,0.129545,0.126474
799.885842,0.050000,0.090139
799.919179,0.038636,0.134778
799.952515,-0.022727,0.040465
799.985850,0.277273,0.193769
800.019186,-0.047727,0.074646
800.052521,0.000000,0.061237
800.085856,0.425000,0.230149
800.119191,0.309091,0.112586
800.152525,-0.002273,0.060334
800.185859,0.425000,0.147373
800.219193,0.325000,0.281458
800.252526,0.306818,0.132848
800.285859,0.277273,0.150155
800.319192,0.547727,0.280429
800.352525,0.270455,0.130018
800.385857,0.025000,0.073951
800.419189,0.218182,0.123483
800.452521,0.097727,0.035410
800.485852,0.220455,0.074438
800.519183,-0.486364,0.090596
800.552514,-0.038636,0.160203
800.585844,-0.552273,0.149253
800.619175,0.763636,0.231037
800.652505,0.681818,0.230410
800.685834,0.172727,0.065634
800.719164,0.227273,0.183993
800.752493,0.265909,0.034822
800.785821,0.322727,0.207914
800.819150,-0.072727,0.054261
800.852478,0.125000,0.081968
800.885806,0.304545,0.153792
800.919134,1.927273,0.255821
800.952461,7.175758,0.376318
800.985788,28.914394,1.285365
801.019115,106.797727,3.755844
801.052441,184.312879,6.796401
801.085767,154.570455,6.238788
801.119093,68.229545,5.081772
801.152419,15.645455,0.855240
801.185744,2.704545,0.453288
801.219069,0.590909,0.520221
801.252394,0.263636,0.163668
801.285718,-0.079545,0.131754
801.319042,0.300000,0.318198
801.352366,-0.072727,0.041161
801.385690,0.600000,0.237171
801.419013,0.297727,0.452899
801.452336,0.236364,0.215514
801.485658,-0.859091,0.130578
801.518981,0.436364,0.157295
801.552303,0.422727,0.205440
801.585625,0.025000,0.021651
801.618946,0.111364,0.145326
801.652267,-0.129545,0.098720
801.685588,0.125000,0.081968
801.718909,0.247727,0.189207
801.752229,0.502273,0.405367
801.785549,0.002273,0.092953
801.818869,0.152273,0.128821
801.852188,-0.190909,0.118966
801.885507,0.218182,0.072443
801.918826,0.336364,0.128685
801.952145,-0.127273,0.094694
801.985463,0.204545,0.180635
802.018781,0.547727,0.278191
802.052099,0.220455,0.143322
802.085416,0.786364,0.291981
802.118733,0.252273,0.304518
802.152050,0.047727,0.023918
802.185366,0.275000,0.155624
802.218683,0.077273,0.123587
802.251999,-0.072727,0.021076
802.285314,-0.150000,0.043301
802.318630,0.365909,0.133855
802.351945,0.350000,0.246221
802.385259,0.377273,0.145543
802.418574,0.450000,0.134629
802.451888,0.386364,0.183782
802.485202,0.122727,0.022384
802.518515,0.050000,0.025000
802.551829,0.309091,0.100874
802.585142,0.172727,0.042519
802.618454,0.147727,0.026186
802.651767,-0.022727,0.040465
802.685079,-0.488636,0.036699
802.718391,0.079545,0.153653
802.751702,1.254545,0.736441
802.785013,0.643182,0.452054
802.818324,0.584091,0.090246
802.851635,1.947727,0.218994
802.884945,8.324242,0.534798
802.918255,52.102273,1.603229
802.951565,162.045455,8.184080
802.984874,185.127273,3.026547
803.018184,122.730303,2.313033
803.051492,43.018939,2.451894
803.084801,7.243182,0.511938
803.118109,2.102273,0.331326
803.151417,0.495455,0.216673
803.184725,0.529545,0.140923
803.218032,0.213636,0.128464
803.251339,0.552273,0.504867
803.284646,0.025000,0.073951
803.317953,0.093182,0.065978
803.351259,-0.288636,0.142164
803.384565,-0.120455,0.095204
803.417870,0.115909,0.074369
803.451176,0.245455,0.164329
803.484481,0.484091,0.165375
803.517786,0.520455,0.145681
803.551090,0.100000,0.050000
803.584394,0.268182,0.167088
803.617698,0.047727,0.089845
803.651002,0.118182,0.116863
803.684305,0.279545,0.213670
803.717608,0.722727,0.351686
803.750910,-0.070455,0.087751
803.784213,0.372727,0.083876
803.817515,0.497727,0.238135
803.850817,0.372727,0.185836
803.884118,0.025000,0.021651
803.917419,0.465909,0.076627
803.950720,0.588636,0.243752
803.984021,0.393182,0.243158
804.017321,0.656818,0.160718
804.050621,0.186364,0.394454
804.083921,0.175000,0.272431
804.117220,0.413636,0.221110
804.150519,0.468182,0.121861
804.183818,0.959091,0.138189
804.217117,0.025000,0.174553
804.250415,0.277273,0.162162
804.283713,0.350000,0.152069
804.317011,0.200000,0.070711
804.350308,0.220455,0.143322
804.383605,0.102273,0.059385
804.416902,0.525000,0.369755
804.450198,0.118182,0.086064
804.483494,0.215909,0.121389
804.516790,0.222727,0.114519
804.550086,0.175000,0.155624
804.583381,-0.125000,0.096014
804.616676,0.363636,0.092765
804.649971,0.863636,0.306507
804.683265,0.627273,0.185836
804.716559,0.354545,0.163983
804.749853,1.343182,0.485273
804.783146,1.795455,0.155262
804.816440,11.906818,1.609394
804.849732,68.370455,1.242421
804.883025,186.696970,5.076458
804.916317,225.117424,4.938405
804.949609,128.428030,2.523267
804.982901,34.638636,1.066489
805.016192,8.293182,0.344157
805.049484,2.243182,0.568322
805.082774,-0.513636,0.143902
805.116065,0.125000,0.041458
805.149355,-0.170455,0.054106
805.182645,0.647727,0.180603
805.215935,0.395455,0.248892
805.249224,-0.018182,0.091193
805.282513,0.147727,0.109251
805.315802,0.554545,0.295734
805.349090,0.102273,0.231358
805.382378,-0.070455,0.038081
805.415666,0.602273,0.527218
805.448954,0.597727,0.207538
805.482241,0.361364,0.194484
805.515528,0.218182,0.063229
805.548815,0.254545,0.163983
805.582101,0.238636,0.096444
805.615387,0.318182,0.055577
805.648673,0.418182,0.068409
805.681958,0.206818,0.490745
805.715243,0.506818,0.109392
805.748528,0.475000,0.147373
805.781813,0.286364,0.277208
805.815097,0.513636,0.143902
805.848381,0.322727,0.439577
805.881665,0.084091,0.135542
805.914948,0.709091,0.214143
805.948231,0.170455,0.147233
805.981514,0.350000,0.160078
806.014796,0.225000,0.073951
806.048079,0.693182,0.180689
806.081360,0.118182,0.086064
806.114642,0.195455,0.070820
806.147923,0.290909,0.104199
806.181204,0.375000,0.213234
806.214485,-0.065909,0.151008
806.247765,-0.043182,0.069337
806.281046,0.195455,0.035574
806.314325,0.175000,0.124373
806.347605,0.388636,0.109675
806.380884,-0.363636,0.126907
806.414163,0.225000,0.138632
806.447441,0.618182,0.133647
806.480720,0.268182,0.174409
806.513998,0.468182,0.247185
806.547275,0.602273,0.155225
806.580553,1.554545,0.456598
806.613830,0.604545,0.216148
806.647107,0.413636,0.162448
806.680383,1.047727,0.143430
806.713659,1.970455,0.626295
806.746935,9.956818,0.866832
806.780211,63.577273,1.516553
806.813486,230.795455,6.934434
806.846761,398.631818,13.448833
806.880036,245.637879,6.321289
806.913310,72.940152,3.702824
806.946584,11.713636,0.744543
806.979858,3.981818,0.976379
807.013132,0.270455,0.043643
807.046405,0.579545,0.372455
807.079678,0.347727,0.076896
807.112951,1.170455,0.378057
807.146223,-0.020455,0.220990
807.179495,-0.050000,0.075000
807.212767,-0.577273,0.202375
807.246038,0.981818,0.302862
807.279309,0.145455,0.089593
807.312580,0.295455,0.263097
807.345850,0.122727,0.082165
807.379121,0.038636,0.152201
807.412390,0.740909,0.209720
807.445660,0.793182,0.201220
807.478929,0.327273,0.234499
807.512198,0.236364,0.144493
807.545467,-0.193182,0.030724
807.578735,0.393182,0.237962
807.612004,-0.231818,0.149879
807.645271,0.840909,0.300387
807.678539,0.127273,0.224091
807.711806,0.956818,0.126719
807.745073,0.445455,0.365662
807.778340,1.054545,0.384151
807.811606,0.877273,0.306818
807.844872,0.440909,0.305637
807.878138,0.934091,0.587625
807.911403,-0.270455,0.130018
807.944668,0.795455,0.218241
807.977933,0.077273,0.123587
808.011197,0.927273,0.320849
808.044462,0.415909,0.125077
808.077725,0.409091,0.077273
808.110989,0.468182,0.092737
808.144252,0.677273,0.115014
808.177515,0.813636,0.296615
808.210778,0.545455,0.267700
808.244040,0.729545,0.337902
808.277302,0.111364,0.284815
808.310564,0.181818,0.172608
808.343826,0.768182,0.152882
808.377087,0.745455,0.452096
808.410348,1.568182,0.468882
808.443608,0.395455,0.155628
808.476869,0.638636,0.312768
808.510129,-0.022727,0.128986
808.543388,1.200000,0.346410
808.576648,0.934091,0.194431
808.609907,0.900000,0.610328
808.643165,0.979545,0.154391
808.676424,4.136364,0.272973
808.709682,27.586364,1.955070
808.742940,166.494697,3.688452
808.776197,481.575000,18.031791
808.809455,498.403030,5.750060
808.842712,215.913636,3.318033
808.875968,40.763636,1.306789
808.909225,5.059091,0.358666
808.942481,1.102273,0.241923
808.975736,0.068182,0.092123
809.008992,0.584091,0.343060
809.042247,0.070455,0.184256
809.075502,0.045455,0.080930
809.108756,-0.490909,0.065319
809.142011,0.647727,0.289403
809.175265,0.306818,0.123079
809.208518,0.381818,0.177796
809.241772,0.004545,0.076230
809.275025,0.315909,0.162603
809.308277,0.663636,0.279961
809.341530,0.634091,0.235408
809.374782,0.334091,0.102619
809.408034,1.081818,0.387472
809.441285,0.811364,0.577893
809.474536,0.590909,0.386350
809.507787,1.284091,0.483908
809.541038,1.154545,0.482258
809.574288,0.175000,0.221853
809.607538,0.022727,0.019682
809.640788,0.354545,0.238040
809.674037,0.247727,0.115323
809.707286,0.070455,0.062850
809.740535,0.722727,0.318093
809.773783,1.013636,0.388650
809.807032,0.809091,0.316146
809.840279,-0.488636,0.106522
809.873527,0.156818,0.187176
809.906774,0.411364,0.198532
809.940021,0.031818,0.134706
809.973268,1.077273,0.133318
810.006514,0.731818,0.207168
810.039760,0.393182,0.204024
810.073006,1.290909,0.326578
810.106251,1.088636,0.353208
810.139497,1.322727,0.323407
810.172741,0.345455,0.220185
810.205986,0.661364,0.260867
810.239230,0.361364,0.342261
810.272474,1.918182,0.269508
810.305718,1.770455,0.495292
810.338961,0.215909,0.253536
810.372204,0.295455,0.052371
810.405447,-0.386364,0.265695
810.438689,0.829545,0.300712
810.471931,0.865909,0.221223
810.505173,0.722727,0.202936
810.538414,2.118182,0.628959
810.571656,1.129545,0.233978
810.604897,2.806818,0.091891
810.638137,6.490909,0.708034
810.671377,49.193182,0.861639
810.704617,340.054545,8.842746
810.737857,880.815909,6.285840
810.771096,785.650000,20.463794
810.804335,285.290909,9.491046
810.837574,39.937121,0.732091
810.870813,6.104545,0.749556
810.904051,0.702273,0.232338
810.937288,0.679545,0.208010
810.970526,0.536364,0.177971
811.003763,0.093182,0.065978
811.037000,0.379545,0.206640
811.070237,0.377273,0.489829
811.103473,0.227273,0.245160
811.136709,1.634091,0.710607
811.169945,0.063636,0.250165
811.203180,0.190909,0.073504
811.236415,0.650000,0.143614
811.269650,0.025000,0.073951
811.302884,-0.047727,0.143430
811.336119,0.081818,0.159610
811.369352,0.813636,0.257220
811.402586,1.204545,0.541162
811.435819,1.484091,0.729311
811.469052,2.259091,0.576830
811.502285,-0.995455,0.325286
811.535517,-1.381818,0.611182
811.568749,-0.202273,1.083976
811.601981,0.418182,0.380368
811.635212,-0.213636,0.162798
811.668443,0.452273,0.259815
811.701674,2.015909,0.636456
811.734905,0.461364,0.330436
811.768135,0.827273,0.458742
811.801365,0.447727,0.325617
811.834594,0.520455,0.302031
811.867824,-0.420455,0.077431
811.901053,-0.275000,0.089268
811.934281,-0.115909,0.354303
811.967510,0.156818,0.128941
812.000738,0.288636,0.209668
812.033965,1.111364,0.555535
812.067193,1.215909,0.494248
812.100420,0.231818,0.273795
812.133647,-0.090909,0.180134
812.166873,-0.984091,0.106425
812.200099,0.453030,0.046336
812.233325,0.081818,0.147395
812.266551,0.088636,0.113244
812.299776,0.068182,0.110619
812.333001,0.584091,0.216551
812.366226,0.668182,0.321517
812.399450,0.093182,0.090017
812.432674,-0.145455,0.042153
812.465898,-0.263636,0.108569
812.499121,0.365909,0.073601
812.532345,0.463636,0.181448
812.565567,0.743182,0.154223
812.598790,1.231818,0.287165
812.632012,10.543182,0.753877
812.665234,83.377273,1.244050
812.698456,291.559848,6.379091
812.731677,337.113636,7.070941
812.764898,118.686364,5.760211
812.798119,19.052273,1.875804
812.831339,2.561364,0.363670
812.864559,0.325000,0.102317
812.897779,0.068182,0.068823
812.930998,0.215909,0.068813
812.964217,0.152273,0.218475
812.997436,-0.170455,0.020674
813.030655,0.102273,0.077631
813.063873,-0.240909,0.070747
813.097091,0.179545,0.266237
813.130308,-0.390909,0.061741
813.163526,-0.025000,0.073951
813.196743,-0.104545,0.108783
813.229959,0.322727,0.125413
813.263176,-0.022727,0.040465
813.296392,0.302273,0.273037
813.329607,-0.127273,0.087846
813.362823,-0.095455,0.047835
813.396038,0.027273,0.138132
813.429253,-0.170455,0.113699
813.462467,-0.261364,0.084512
813.495682,-0.027273,0.063879
813.528895,-0.100000,0.145774
813.562109,0.125000,0.108253
813.595322,0.050000,0.075000
813.628535,0.052273,0.054391
813.661748,0.050000,0.055902
813.694960,0.477273,0.211705
813.728172,-0.122727,0.054782
813.761384,-0.268182,0.020455
813.794596,-0.368182,0.044825
813.827807,-0.461364,0.047497
813.861017,-0.200000,0.061237
813.894228,0.097727,0.106084
813.927438,0.052273,0.054391
813.960648,0.195455,0.247519
813.993858,-0.047727,0.108729
814.027067,0.052273,0.054391
814.060276,0.072727,0.073785
814.093485,-0.043182,0.186568
814.126693,-0.172727,0.096477
814.159901,-0.220455,0.042321
814.193109,-0.593182,0.092507
814.226316,0.072727,0.089130
814.259523,0.011364,0.191540
814.292730,0.120455,0.039545
814.325936,0.329545,0.151042
814.359143,0.075000,0.021651
814.392348,0.029545,0.070519
814.425554,0.370455,0.365215
814.458759,0.402273,0.268208
814.491964,-0.240909,0.100026
814.525169,0.147727,0.167886
814.558373,-0.018182,0.266113
814.591577,0.104545,0.230399
814.624781,0.327273,0.427188
814.657984,0.636364,0.208819
