#{
#    "background_file": "Backgrounds\\\\bg_787.999nm_16bin_197st_244en_10.0s_110g_4x_1_seq.txt",
#    "ccd_image_settings": [
#        1,
#        16,
#        1,
#        1600,
#        197,
#        244
#    ],
#    "ccd_temperature": "-88",
#    "cdRatios": {
#        "mean": 0.9327049291188888,
#        "std": 0.007531571816320323
#    },
#    "center_lambda": 788.0,
#    "comments": "",
#    "dark_region": 0.27963733954296355,
#    "date": "11/17/19 14:35:28PM",
#    "eff_field": 1.5,
#    "exposure": 10.0,
#    "fel_lambda": "15.0",
#    "fel_pol": "H",
#    "fel_pulses": 40,
#    "fel_pyro_cal": "0.017",
#    "fel_reprate": "1.07",
#    "fel_transmission": "1.0",
#    "fel_transmission_fits": {
#        "A": 1.0,
#        "C": 0.0,
#        "Mu": 0.0
#    },
#    "fieldInt": {
#        "mean": 9264.25625,
#        "std": 446.3478635304417
#    },
#    "fieldStrength": {
#        "mean": 44.14625000000001,
#        "std": 1.0609060378325839
#    },
#    "fpTime": {
#        "mean": 1.103242710492602,
#        "std": 0.08322669666490483
#    },
#    "gain": 110,
#    "grating": 3,
#    "images_in_sequence": [
#        "hsg_SpotD_crystal16_an45_HAna161.txt",
#        "hsg_SpotD_crystal16_an45_HAna162.txt",
#        "hsg_SpotD_crystal16_an45_HAna163.txt",
#        "hsg_SpotD_crystal16_an45_HAna164.txt"
#    ],
#    "nir_lambda": "820.9918",
#    "nir_pola": "-45",
#    "nir_polg": "0",
#    "nir_power": "100.0",
#    "pulseEnergies": {
#        "mean": 1.9933863636363636,
#        "std": 0.10910973583919235
#    },
#    "pyroVoltage": {
#        "mean": 0.12582381227668288,
#        "std": 0.007755978363856064
#    },
#    "rotatorAngle": 157.4999963378817,
#    "sample_Temp": "58",
#    "sample_name": "L001218.C3",
#    "series": "SpotD_16_-45",
#    "slits": "60",
#    "spec_step": "",
#    "window_trans": 0.92,
#    "y_max": 2,
#    "y_min": 1
#}
#
#
#
#
#
#
#
#
#
#
#
#
#
#
#
#
#
#
#
#
#
#
#
#
#
#
Wavelength,Signal,error
nm,arb. u.,arb.u.
Wavelength,SpotD_16_-45,error
761.200217,0.450000,0.450694
761.233859,0.150000,0.167705
761.267500,0.225000,0.119242
761.301141,-0.050000,0.134629
761.334781,0.150000,0.182003
761.368422,-0.325000,0.073951
761.402062,0.175000,0.119242
761.435702,-0.200000,0.070711
761.469342,0.350000,0.268095
761.502981,0.175000,0.096014
761.536620,0.225000,0.230149
761.570259,-0.125000,0.054486
761.603898,-0.250000,0.082916
761.637537,-0.250000,0.055902
761.671175,-0.075000,0.155624
761.704813,0.075000,0.081968
761.738451,0.450000,0.192029
761.772088,0.025000,0.041458
761.805726,-0.275000,0.096014
761.839363,-0.075000,0.089268
761.873000,-0.425000,0.096014
761.906636,0.175000,0.096014
761.940273,0.150000,0.055902
761.973909,0.025000,0.054486
762.007545,-0.075000,0.021651
762.041180,-0.100000,0.111803
762.074816,0.050000,0.055902
762.108451,0.175000,0.054486
762.142086,0.575000,0.064952
762.175720,0.050000,0.075000
762.209355,-0.200000,0.093541
762.242989,0.200000,0.061237
762.276623,0.025000,0.096014
762.310257,0.025000,0.143069
762.343890,-0.425000,0.073951
762.377524,-0.200000,0.061237
762.411157,0.075000,0.163459
762.444789,0.100000,0.173205
762.478422,0.050000,0.055902
762.512054,-0.000000,0.093541
762.545686,-0.050000,0.055902
762.579318,0.025000,0.230149
762.612950,0.100000,0.070711
762.646581,-0.050000,0.216506
762.680212,0.050000,0.025000
762.713843,0.250000,0.152069
762.747474,0.300000,0.122474
762.781104,0.300000,0.306186
762.814734,-0.325000,0.041458
762.848364,-0.100000,0.145774
762.881994,-0.050000,0.025000
762.915623,0.250000,0.152069
762.949252,0.000000,0.061237
762.982881,0.250000,0.178536
763.016510,0.100000,0.035355
763.050139,0.350000,0.309233
763.083767,0.125000,0.207289
763.117395,-0.050000,0.025000
763.151023,0.125000,0.073951
763.184650,0.125000,0.041458
763.218277,-0.175000,0.207289
763.251904,0.350000,0.188746
763.285531,0.100000,0.117260
763.319158,-0.050000,0.075000
763.352784,-0.150000,0.103078
763.386410,-0.050000,0.246221
763.420036,-0.600000,0.127475
763.453661,0.650000,0.343693
763.487287,0.375000,0.421863
763.520912,-1.050000,0.225000
763.554537,0.275000,0.216145
763.588161,0.200000,0.327872
763.621786,-0.000000,0.145774
763.655410,0.100000,0.136931
763.689034,-0.150000,0.075000
763.722657,0.300000,0.231840
763.756281,0.175000,0.096014
763.789904,-0.200000,0.086603
763.823527,-0.250000,0.082916
763.857150,0.200000,0.100000
763.890772,-0.200000,0.086603
763.924394,0.025000,0.064952
763.958016,0.325000,0.108253
763.991638,0.275000,0.073951
764.025260,0.300000,0.203101
764.058881,0.075000,0.021651
764.092502,-0.250000,0.055902
764.126123,0.275000,0.216145
764.159743,-0.075000,0.064952
764.193363,-0.050000,0.090139
764.226983,0.075000,0.041458
764.260603,0.450000,0.055902
764.294223,0.025000,0.204252
764.327842,0.050000,0.055902
764.361461,-0.025000,0.041458
764.395080,0.150000,0.103078
764.428699,0.350000,0.477624
764.462317,0.150000,0.025000
764.495935,-0.050000,0.114564
764.529553,0.000000,0.061237
764.563170,0.325000,0.204252
764.596788,0.250000,0.055902
764.630405,0.325000,0.224653
764.664022,-0.200000,0.050000
764.697638,0.200000,0.158114
764.731255,0.125000,0.073951
764.764871,0.125000,0.167239
764.798487,-0.050000,0.134629
764.832103,0.175000,0.134048
764.865718,0.050000,0.108972
764.899333,0.025000,0.041458
764.932948,-0.050000,0.055902
764.966563,-0.200000,0.093541
765.000177,0.050000,0.075000
765.033792,0.150000,0.090139
765.067406,0.175000,0.073951
765.101019,-0.075000,0.054486
765.134633,-0.000000,0.183712
765.168246,0.150000,0.075000
765.201859,0.525000,0.320887
765.235472,0.500000,0.196850
765.269084,0.075000,0.021651
765.302697,-0.175000,0.096014
765.336309,-0.025000,0.041458
765.369920,0.400000,0.145774
765.403532,0.000000,0.106066
765.437143,-0.050000,0.134629
765.470754,0.150000,0.043301
765.504365,0.100000,0.111803
765.537976,0.025000,0.124373
765.571586,0.175000,0.198037
765.605196,-0.075000,0.113880
765.638806,0.125000,0.235518
765.672416,0.625000,0.245904
765.706025,0.025000,0.096014
765.739634,0.375000,0.216145
765.773243,-0.100000,0.070711
765.806851,0.200000,0.293684
765.840460,-0.100000,0.035355
765.874068,0.575000,0.324760
765.907676,-0.175000,0.096014
765.941284,0.025000,0.073951
765.974891,0.000000,0.079057
766.008498,0.150000,0.114564
766.042105,-0.025000,0.064952
766.075712,-0.275000,0.021651
766.109318,-0.150000,0.103078
766.142924,0.325000,0.096014
766.176530,-0.475000,0.081968
766.210136,-0.225000,0.041458
766.243741,0.200000,0.127475
766.277347,0.125000,0.143069
766.310951,-0.225000,0.096014
766.344556,-0.025000,0.073951
766.378161,0.075000,0.064952
766.411765,-0.150000,0.082916
766.445369,-0.100000,0.100000
766.478973,-0.150000,0.055902
766.512576,-0.025000,0.089268
766.546179,0.250000,0.305164
766.579782,0.250000,0.108972
766.613385,0.100000,0.206155
766.646988,-0.325000,0.089268
766.680590,0.075000,0.021651
766.714192,0.150000,0.082916
766.747794,0.000000,0.106066
766.781395,0.200000,0.035355
766.814996,-0.425000,0.081968
766.848597,0.200000,0.200000
766.882198,0.025000,0.054486
766.915799,0.025000,0.073951
766.949399,0.000000,0.079057
766.982999,0.225000,0.041458
767.016599,-0.050000,0.103078
767.050198,0.200000,0.237171
767.083798,0.075000,0.073951
767.117397,0.050000,0.055902
767.150996,0.250000,0.192029
767.184594,-0.325000,0.089268
767.218193,-0.075000,0.081968
767.251791,0.225000,0.248433
767.285389,-0.325000,0.216145
767.318986,-0.125000,0.041458
767.352583,0.800000,0.215058
767.386181,0.125000,0.138632
767.419777,0.250000,0.167705
767.453374,0.100000,0.070711
767.486970,-0.425000,0.073951
767.520567,0.375000,0.194856
767.554162,0.100000,0.127475
767.587758,0.225000,0.113880
767.621353,0.075000,0.041458
767.654949,0.225000,0.188331
767.688543,0.375000,0.129301
767.722138,0.100000,0.145774
767.755732,0.175000,0.041458
767.789327,-0.100000,0.117260
767.822921,-0.350000,0.134629
767.856514,-0.000000,0.291548
767.890108,0.000000,0.070711
767.923701,0.150000,0.103078
767.957294,0.050000,0.082916
767.990886,0.400000,0.127475
768.024479,0.225000,0.243349
768.058071,-0.025000,0.021651
768.091663,-0.025000,0.188331
768.125255,0.425000,0.265460
768.158846,0.125000,0.064952
768.192437,0.200000,0.269258
768.226028,0.050000,0.246221
768.259619,0.000000,0.154110
768.293209,-0.075000,0.054486
768.326799,0.100000,0.127475
768.360389,0.400000,0.351781
768.393979,0.175000,0.096014
768.427568,0.100000,0.100000
768.461158,0.050000,0.134629
768.494747,-0.250000,0.043301
768.528335,-0.075000,0.170935
768.561924,0.200000,0.079057
768.595512,0.250000,0.248747
768.629100,0.075000,0.041458
768.662688,0.325000,0.267804
768.696275,-0.050000,0.075000
768.729862,0.175000,0.326678
768.763449,-0.075000,0.073951
768.797036,-0.100000,0.093541
768.830623,0.250000,0.160078
768.864209,0.250000,0.188746
768.897795,0.050000,0.075000
768.931381,0.175000,0.064952
768.964966,-0.075000,0.322829
768.998551,0.100000,0.093541
769.032136,-0.250000,0.055902
769.065721,0.050000,0.134629
769.099305,-0.075000,0.054486
769.132890,-0.150000,0.055902
769.166474,0.050000,0.075000
769.200057,-0.225000,0.073951
769.233641,0.000000,0.079057
769.267224,-0.025000,0.054486
769.300807,-0.225000,0.119242
769.334390,-0.125000,0.064952
769.367972,0.050000,0.055902
769.401555,-0.200000,0.111803
769.435137,-0.250000,0.055902
769.468718,0.050000,0.043301
769.502300,0.075000,0.147373
769.535881,-0.125000,0.181573
769.569462,-0.400000,0.106066
769.603043,0.100000,0.262202
769.636623,0.125000,0.124373
769.670204,0.125000,0.124373
769.703784,0.450000,0.225000
769.737364,0.100000,0.145774
769.770943,0.200000,0.244949
769.804522,-0.175000,0.108253
769.838101,-0.225000,0.021651
769.871680,0.000000,0.061237
769.905259,-0.300000,0.093541
769.938837,0.200000,0.206155
769.972415,0.000000,0.050000
770.005993,0.175000,0.064952
770.039570,0.150000,0.043301
770.073147,-0.050000,0.025000
770.106724,-0.050000,0.082916
770.140301,0.250000,0.043301
770.173878,0.050000,0.090139
770.207454,-0.050000,0.075000
770.241030,0.150000,0.075000
770.274606,-0.025000,0.041458
770.308181,0.125000,0.041458
770.341757,0.150000,0.134629
770.375332,0.075000,0.081968
770.408906,-0.025000,0.041458
770.442481,-0.250000,0.025000
770.476055,0.025000,0.143069
770.509629,0.450000,0.134629
770.543203,-0.050000,0.055902
770.576776,0.050000,0.055902
770.610350,0.125000,0.073951
770.643923,0.100000,0.079057
770.677495,0.400000,0.176777
770.711068,-0.025000,0.021651
770.744640,-0.050000,0.108972
770.778212,-0.050000,0.090139
770.811784,-0.175000,0.081968
770.845356,-0.125000,0.089268
770.878927,0.550000,0.103078
770.912498,0.075000,0.089268
770.946069,0.025000,0.267804
770.979639,-0.050000,0.043301
771.013209,0.125000,0.041458
771.046779,0.000000,0.369121
771.080349,-0.050000,0.025000
771.113919,-0.025000,0.108253
771.147488,0.250000,0.256174
771.181057,0.050000,0.082916
771.214626,0.000000,0.061237
771.248194,0.275000,0.089268
771.281762,-0.200000,0.061237
771.315330,-0.050000,0.090139
771.348898,0.150000,0.055902
771.382465,0.225000,0.221853
771.416033,0.125000,0.108253
771.449600,0.600000,0.106066
771.483166,0.400000,0.106066
771.516733,0.175000,0.279229
771.550299,0.100000,0.136931
771.583865,0.400000,0.377492
771.617431,-0.100000,0.086603
771.650996,0.250000,0.134629
771.684562,0.200000,0.158114
771.718127,0.050000,0.055902
771.751691,0.075000,0.096014
771.785256,-0.150000,0.055902
771.818820,-0.025000,0.096014
771.852384,0.125000,0.089268
771.885948,0.025000,0.096014
771.919511,-0.025000,0.054486
771.953074,0.100000,0.093541
771.986637,0.175000,0.064952
772.020200,0.100000,0.070711
772.053762,0.225000,0.194856
772.087325,-0.100000,0.093541
772.120887,-0.300000,0.079057
772.154448,0.150000,0.075000
772.188010,0.050000,0.103078
772.221571,-0.075000,0.143069
772.255132,0.150000,0.134629
772.288692,0.475000,0.167239
772.322253,-0.225000,0.089268
772.355813,-0.450000,0.025000
772.389373,-0.200000,0.154110
772.422933,0.025000,0.151554
772.456492,0.375000,0.198037
772.490051,0.000000,0.050000
772.523610,0.175000,0.096014
772.557169,0.125000,0.054486
772.590727,-0.050000,0.025000
772.624285,0.225000,0.129301
772.657843,0.225000,0.041458
772.691401,-0.675000,0.081968
772.724958,-0.100000,0.061237
772.758515,0.525000,0.194856
772.792072,0.000000,0.061237
772.825629,0.125000,0.143069
772.859185,0.050000,0.082916
772.892741,0.025000,0.096014
772.926297,0.075000,0.041458
772.959853,0.200000,0.176777
772.993408,-0.425000,0.124373
773.026963,-0.125000,0.041458
773.060518,-0.125000,0.041458
773.094073,0.425000,0.265460
773.127627,0.025000,0.041458
773.161181,0.475000,0.143069
773.194735,0.300000,0.127475
773.228289,0.625000,0.300780
773.261842,0.450000,0.175000
773.295395,0.625000,0.361205
773.328948,0.750000,0.328824
773.362500,0.300000,0.187083
773.396053,0.175000,0.326678
773.429605,-0.050000,0.043301
773.463157,0.150000,0.055902
773.496708,0.250000,0.143614
773.530260,-0.100000,0.035355
773.563811,-0.350000,0.025000
773.597361,-0.050000,0.103078
773.630912,0.150000,0.025000
773.664462,0.225000,0.064952
773.698012,-0.300000,0.070711
773.731562,0.100000,0.111803
773.765111,0.575000,0.499218
773.798661,0.025000,0.073951
773.832210,0.100000,0.050000
773.865758,0.125000,0.064952
773.899307,0.150000,0.103078
773.932855,0.275000,0.143069
773.966403,-0.150000,0.043301
773.999951,0.125000,0.089268
774.033498,-0.075000,0.124373
774.067046,-0.025000,0.081968
774.100593,0.100000,0.035355
774.134139,0.050000,0.055902
774.167686,0.100000,0.061237
774.201232,0.275000,0.064952
774.234778,0.075000,0.054486
774.268324,0.050000,0.082916
774.301869,0.150000,0.129904
774.335414,-0.250000,0.055902
774.368959,-0.050000,0.090139
774.402504,0.400000,0.385681
774.436048,-0.225000,0.041458
774.469592,-0.050000,0.082916
774.503136,0.025000,0.054486
774.536680,0.050000,0.055902
774.570223,0.150000,0.182003
774.603766,0.225000,0.124373
774.637309,0.350000,0.279508
774.670852,0.000000,0.061237
774.704394,0.275000,0.272431
774.737936,-0.350000,0.055902
774.771478,-0.150000,0.163936
774.805020,0.500000,0.252488
774.838561,0.125000,0.041458
774.872102,0.550000,0.219374
774.905643,0.100000,0.061237
774.939183,0.225000,0.108253
774.972724,0.675000,0.188331
775.006264,1.175000,0.502960
775.039804,1.475000,0.232849
775.073343,0.775000,0.134048
775.106882,0.350000,0.160078
775.140421,0.350000,0.167705
775.173960,-0.150000,0.225000
775.207499,-0.050000,0.114564
775.241037,0.300000,0.231840
775.274575,-0.025000,0.041458
775.308113,-0.050000,0.090139
775.341650,0.150000,0.103078
775.375187,-0.050000,0.114564
775.408724,0.050000,0.114564
775.442261,-0.100000,0.035355
775.475798,-0.300000,0.035355
775.509334,0.375000,0.041458
775.542870,-0.075000,0.096014
775.576405,-0.150000,0.025000
775.609941,0.175000,0.041458
775.643476,-0.025000,0.054486
775.677011,-0.225000,0.155624
775.710546,0.250000,0.075000
775.744080,0.150000,0.055902
775.777614,0.425000,0.318934
775.811148,-0.125000,0.064952
775.844682,-0.125000,0.108253
775.878215,-0.075000,0.089268
775.911748,-0.050000,0.125000
775.945281,0.075000,0.181573
775.978814,-0.100000,0.127475
776.012346,-0.050000,0.055902
776.045878,-0.100000,0.035355
776.079410,0.275000,0.054486
776.112941,0.125000,0.041458
776.146473,-0.150000,0.143614
776.180004,0.000000,0.035355
776.213535,0.225000,0.167239
776.247065,0.125000,0.124373
776.280595,0.150000,0.055902
776.314125,0.175000,0.054486
776.347655,0.050000,0.134629
776.381185,-0.350000,0.090139
776.414714,0.250000,0.043301
776.448243,-0.025000,0.124373
776.481772,0.250000,0.147902
776.515300,0.300000,0.122474
776.548828,-0.025000,0.178098
776.582356,-0.050000,0.043301
776.615884,0.000000,0.150000
776.649411,-0.025000,0.064952
776.682938,0.225000,0.119242
776.716465,0.300000,0.111803
776.749992,0.600000,0.234521
776.783518,1.050000,0.391312
776.817044,1.250000,0.436606
776.850570,1.675000,0.174553
776.884096,2.100000,0.699107
776.917621,1.250000,0.296859
776.951146,0.600000,0.136931
776.984671,0.075000,0.310996
777.018196,-0.050000,0.043301
777.051720,0.175000,0.073951
777.085244,0.150000,0.055902
777.118768,-0.375000,0.041458
777.152292,0.375000,0.170935
777.185815,0.175000,0.108253
777.219338,-0.125000,0.041458
777.252861,-0.050000,0.055902
777.286383,-0.125000,0.021651
777.319905,0.025000,0.143069
777.353427,0.175000,0.102317
777.386949,0.175000,0.081968
777.420471,0.025000,0.041458
777.453992,0.300000,0.203101
777.487513,0.050000,0.025000
777.521033,-0.350000,0.055902
777.554554,-0.125000,0.041458
777.588074,-0.000000,0.079057
777.621594,0.250000,0.147902
777.655114,0.100000,0.093541
777.688633,0.300000,0.106066
777.722152,0.175000,0.089268
777.755671,0.275000,0.102317
777.789190,-0.125000,0.064952
777.822708,0.050000,0.103078
777.856226,0.375000,0.143069
777.889744,0.225000,0.159589
777.923261,-0.100000,0.079057
777.956779,0.050000,0.090139
777.990296,-0.000000,0.093541
778.023812,0.175000,0.054486
778.057329,-0.075000,0.041458
778.090845,0.200000,0.100000
778.124361,0.050000,0.134629
778.157877,-0.050000,0.055902
778.191392,0.025000,0.147373
778.224908,-0.025000,0.041458
778.258423,0.175000,0.096014
778.291937,0.025000,0.064952
778.325452,-0.000000,0.106066
778.358966,-0.125000,0.021651
778.392480,-0.025000,0.041458
778.425993,0.000000,0.127475
778.459507,0.025000,0.064952
778.493020,0.200000,0.122474
778.526533,0.050000,0.129904
778.560045,0.150000,0.251247
778.593558,1.675000,0.276981
778.627070,1.050000,0.178536
778.660582,2.150000,0.726722
778.694093,1.925000,0.501716
778.727605,0.775000,0.207289
778.761116,0.275000,0.194856
778.794626,0.225000,0.163459
778.828137,0.350000,0.227761
778.861647,-0.025000,0.021651
778.895157,0.100000,0.086603
778.928667,0.100000,0.070711
778.962176,-0.075000,0.054486
778.995686,0.025000,0.041458
779.029194,0.050000,0.055902
779.062703,0.075000,0.021651
779.096212,0.025000,0.054486
779.129720,0.125000,0.073951
779.163228,0.025000,0.194856
779.196735,-0.025000,0.054486
779.230243,-0.550000,0.195256
779.263750,0.150000,0.261008
779.297257,0.375000,0.163459
779.330763,-0.075000,0.041458
779.364269,0.100000,0.100000
779.397776,0.100000,0.000000
779.431281,-0.100000,0.035355
779.464787,0.100000,0.070711
779.498292,0.050000,0.055902
779.531797,0.100000,0.106066
779.565302,0.175000,0.096014
779.598806,0.050000,0.075000
779.632311,0.125000,0.089268
779.665814,0.175000,0.021651
779.699318,0.100000,0.111803
779.732822,0.425000,0.339807
779.766325,0.175000,0.155624
779.799828,0.075000,0.064952
779.833330,0.075000,0.054486
779.866833,-0.050000,0.025000
779.900335,0.150000,0.082916
779.933837,-0.025000,0.064952
779.967338,-0.125000,0.108253
780.000840,0.100000,0.106066
780.034341,-0.200000,0.086603
780.067841,-0.075000,0.041458
780.101342,-0.100000,0.061237
780.134842,0.475000,0.181573
780.168342,0.125000,0.216145
780.201842,0.225000,0.155624
780.235341,0.150000,0.025000
780.268841,0.500000,0.259808
780.302340,-0.050000,0.134629
780.335838,0.100000,0.061237
780.369337,0.400000,0.079057
780.402835,0.875000,0.433554
780.436333,1.525000,0.178098
780.469830,2.575000,0.446339
780.503328,2.900000,0.709753
780.536825,3.200000,0.502494
780.570322,2.075000,0.369755
780.603818,1.000000,0.351781
780.637315,0.225000,0.147373
780.670811,0.025000,0.143069
780.704306,-0.100000,0.079057
780.737802,0.000000,0.061237
780.771297,-0.100000,0.035355
780.804792,0.075000,0.073951
780.838287,0.050000,0.082916
780.871781,-0.200000,0.035355
780.905276,-0.225000,0.064952
780.938770,-0.275000,0.089268
780.972263,-0.125000,0.054486
781.005757,0.125000,0.096014
781.039250,0.125000,0.073951
781.072743,0.075000,0.073951
781.106235,-0.025000,0.064952
781.139728,-0.050000,0.082916
781.173220,0.275000,0.248433
781.206712,0.075000,0.054486
781.240203,0.075000,0.041458
781.273694,-0.125000,0.041458
781.307185,-0.050000,0.055902
781.340676,0.050000,0.090139
781.374167,-0.150000,0.055902
781.407657,0.350000,0.055902
781.441147,0.050000,0.082916
781.474636,0.100000,0.035355
781.508126,-0.125000,0.041458
781.541615,0.000000,0.035355
781.575104,0.025000,0.054486
781.608593,0.225000,0.170935
781.642081,-0.075000,0.089268
781.675569,0.075000,0.129301
781.709057,-0.025000,0.119242
781.742544,0.225000,0.041458
781.776032,-0.200000,0.070711
781.809519,0.150000,0.103078
781.843006,0.400000,0.203101
781.876492,0.025000,0.081968
781.909978,0.150000,0.075000
781.943464,-0.050000,0.025000
781.976950,0.050000,0.055902
782.010435,0.300000,0.145774
782.043921,0.150000,0.055902
782.077406,0.100000,0.061237
782.110890,0.150000,0.075000
782.144375,0.050000,0.075000
782.177859,0.325000,0.102317
782.211343,0.075000,0.184983
782.244826,2.000000,0.266927
782.278309,3.100000,0.650961
782.311792,6.575000,0.730047
782.345275,5.700000,0.127475
782.378758,5.325000,0.768420
782.412240,2.000000,0.530330
782.445722,0.425000,0.258300
782.479204,0.125000,0.155624
782.512685,-0.125000,0.102317
782.546166,0.150000,0.167705
782.579647,0.225000,0.041458
782.613128,0.025000,0.041458
782.646608,-0.125000,0.021651
782.680088,0.125000,0.021651
782.713568,-0.275000,0.021651
782.747048,0.000000,0.061237
782.780527,-0.350000,0.025000
782.814006,-0.025000,0.119242
782.847485,0.275000,0.194856
782.880963,0.075000,0.096014
782.914442,-0.125000,0.041458
782.947920,0.125000,0.216145
782.981397,0.400000,0.209165
783.014875,0.100000,0.111803
783.048352,0.125000,0.041458
783.081829,0.550000,0.143614
783.115306,0.225000,0.143069
783.148782,0.250000,0.207666
783.182258,-0.050000,0.134629
783.215734,0.475000,0.188331
783.249209,0.250000,0.305164
783.282685,0.000000,0.000000
783.316160,0.125000,0.129301
783.349635,0.050000,0.075000
783.383109,-0.350000,0.143614
783.416583,-0.075000,0.096014
783.450057,-0.100000,0.086603
783.483531,-0.125000,0.119242
783.517004,0.200000,0.117260
783.550477,0.175000,0.096014
783.583950,0.275000,0.073951
783.617423,0.425000,0.163459
783.650895,0.100000,0.050000
783.684367,-0.125000,0.081968
783.717839,-0.150000,0.311247
783.751311,0.075000,0.124373
783.784782,0.375000,0.270127
783.818253,-0.050000,0.055902
783.851724,0.125000,0.054486
783.885194,0.100000,0.079057
783.918665,0.050000,0.167705
783.952134,0.175000,0.021651
783.985604,0.525000,0.188331
784.019074,0.275000,0.134048
784.052543,0.975000,0.308980
784.086012,2.975000,0.889786
784.119480,4.450000,0.844467
784.152948,6.733333,0.585591
784.186416,5.666667,0.782890
784.219884,4.575000,0.781325
784.253352,2.275000,0.515237
784.286819,0.075000,0.267804
784.320286,0.025000,0.198037
784.353753,0.075000,0.054486
784.387219,-0.175000,0.096014
784.420685,0.275000,0.184983
784.454151,0.325000,0.073951
784.487617,-0.125000,0.096014
784.521082,0.075000,0.102317
784.554547,0.175000,0.041458
784.588012,-0.075000,0.054486
784.621477,0.075000,0.021651
784.654941,0.100000,0.079057
784.688405,0.200000,0.061237
784.721869,0.250000,0.246221
784.755332,0.150000,0.143614
784.788795,-0.025000,0.073951
784.822258,0.025000,0.041458
784.855721,-0.125000,0.041458
784.889183,0.100000,0.079057
784.922646,-0.100000,0.154110
784.956107,0.075000,0.113880
784.989569,0.350000,0.201556
785.023030,-0.050000,0.160078
785.056491,-0.025000,0.081968
785.089952,0.175000,0.113880
785.123413,-0.075000,0.113880
785.156873,0.000000,0.375832
785.190333,0.025000,0.081968
785.223792,0.125000,0.064952
785.257252,0.425000,0.258300
785.290711,0.225000,0.163459
785.324170,0.075000,0.073951
785.357629,0.000000,0.237171
785.391087,0.125000,0.041458
785.424545,0.125000,0.054486
785.458003,0.075000,0.064952
785.491460,-0.075000,0.041458
785.524918,0.225000,0.041458
785.558375,0.125000,0.129301
785.591831,0.050000,0.055902
785.625288,-0.075000,0.021651
785.658744,0.175000,0.096014
785.692200,0.050000,0.195256
785.725655,-0.025000,0.064952
785.759111,0.425000,0.314990
785.792566,-0.075000,0.073951
785.826021,-0.025000,0.102317
785.859475,0.025000,0.343466
785.892930,1.025000,0.399022
785.926384,3.225000,0.759420
785.959837,4.450000,0.482830
785.993291,8.500000,0.455522
786.026744,9.900000,0.358818
786.060197,6.500000,0.691918
786.093649,1.875000,0.497965
786.127102,1.550000,0.626997
786.160554,0.250000,0.108972
786.194006,0.050000,0.103078
786.227457,0.025000,0.113880
786.260909,0.150000,0.103078
786.294360,0.075000,0.064952
786.327810,-0.350000,0.025000
786.361261,0.375000,0.151554
786.394711,0.050000,0.043301
786.428161,-0.100000,0.061237
786.461611,0.050000,0.082916
786.495060,-0.100000,0.050000
786.528509,-0.050000,0.103078
786.561958,0.200000,0.117260
786.595407,0.100000,0.035355
786.628855,0.150000,0.055902
786.662303,-0.250000,0.090139
786.695751,-0.000000,0.127475
786.729198,-0.025000,0.108253
786.762645,0.200000,0.206155
786.796092,0.000000,0.136931
786.829539,0.225000,0.102317
786.862985,-0.125000,0.113880
786.896431,-0.150000,0.043301
786.929877,0.200000,0.086603
786.963323,0.225000,0.129301
786.996768,0.075000,0.041458
787.030213,-0.000000,0.106066
787.063658,0.025000,0.113880
787.097102,0.150000,0.134629
787.130547,-0.425000,0.054486
787.163991,-0.075000,0.041458
787.197434,-0.200000,0.117260
787.230878,0.225000,0.054486
787.264321,0.350000,0.055902
787.297764,-0.200000,0.035355
787.331206,0.050000,0.055902
787.364648,0.125000,0.073951
787.398090,0.150000,0.043301
787.431532,0.075000,0.089268
787.464974,-0.275000,0.021651
787.498415,-0.150000,0.075000
787.531856,0.175000,0.073951
787.565296,-0.250000,0.090139
787.598737,0.200000,0.079057
787.632177,0.500000,0.231840
787.665617,-0.100000,0.079057
787.699056,0.375000,0.198037
787.732496,0.025000,0.328586
787.765935,1.950000,0.433734
787.799373,4.900000,0.625500
787.832812,9.966667,1.096206
787.866250,12.525000,1.123819
787.899688,10.525000,1.586811
787.933126,4.400000,0.486056
787.966563,1.075000,0.138632
788.000000,0.900000,0.584166
788.033437,0.250000,0.248747
788.066873,0.375000,0.276981
788.100310,0.325000,0.119242
788.133746,0.400000,0.154110
788.167181,0.125000,0.096014
788.200617,-0.000000,0.086603
788.234052,0.125000,0.073951
788.267487,0.475000,0.272431
788.300921,0.075000,0.041458
788.334356,0.350000,0.207666
788.367790,0.400000,0.206155
788.401224,0.000000,0.035355
788.434657,-0.225000,0.064952
788.468090,-0.025000,0.064952
788.501523,0.325000,0.207289
788.534956,0.175000,0.143069
788.568389,0.225000,0.102317
788.601821,0.250000,0.075000
788.635253,0.150000,0.195256
788.668684,-0.150000,0.075000
788.702116,0.200000,0.127475
788.735547,0.550000,0.381608
788.768977,0.250000,0.292617
788.802408,0.725000,0.155624
788.835838,0.025000,0.064952
788.869268,0.125000,0.041458
788.902698,0.050000,0.082916
788.936127,0.000000,0.061237
788.969556,0.025000,0.089268
789.002985,0.100000,0.093541
789.036414,0.275000,0.124373
789.069842,0.075000,0.073951
789.103270,0.100000,0.086603
789.136698,0.050000,0.075000
789.170125,0.125000,0.073951
789.203552,0.025000,0.041458
789.236979,0.125000,0.124373
789.270406,0.175000,0.163459
789.303832,0.175000,0.041458
789.337258,-0.050000,0.055902
789.370684,0.075000,0.041458
789.404110,0.050000,0.055902
789.437535,0.350000,0.163936
789.470960,0.350000,0.103078
789.504385,0.025000,0.064952
789.537809,0.275000,0.337963
789.571233,0.250000,0.178536
789.604657,1.475000,0.096014
789.638081,3.675000,0.792445
789.671504,7.800000,0.498748
789.704927,16.950000,1.346523
789.738350,16.633333,0.447679
789.771772,8.466667,0.287953
789.805195,3.325000,0.751145
789.838617,1.225000,0.517657
789.872038,0.125000,0.064952
789.905460,-0.325000,0.355976
789.938881,0.250000,0.082916
789.972302,-0.125000,0.021651
790.005722,-0.100000,0.035355
790.039143,0.300000,0.358818
790.072563,0.275000,0.167239
790.105982,0.075000,0.113880
790.139402,0.250000,0.055902
790.172821,-0.325000,0.021651
790.206240,-0.050000,0.090139
790.239658,0.275000,0.151554
790.273077,0.200000,0.093541
790.306495,0.275000,0.383039
790.339913,0.150000,0.082916
790.373330,0.950000,0.413068
790.406747,0.200000,0.176777
790.440164,-0.100000,0.093541
790.473581,0.200000,0.162019
790.506997,-0.125000,0.096014
790.540414,0.225000,0.263095
790.573829,0.175000,0.210283
790.607245,0.175000,0.124373
790.640660,0.525000,0.395877
790.674075,0.175000,0.073951
790.707490,0.350000,0.134629
790.740904,0.150000,0.043301
790.774319,0.025000,0.064952
790.807733,0.175000,0.178098
790.841146,0.225000,0.073951
790.874560,-0.300000,0.086603
790.907973,0.250000,0.103078
790.941385,0.275000,0.064952
790.974798,0.275000,0.096014
791.008210,0.750000,0.564026
791.041622,-0.025000,0.041458
791.075034,0.075000,0.041458
791.108445,0.250000,0.125000
791.141856,0.225000,0.041458
791.175267,-0.075000,0.021651
791.208678,0.425000,0.258300
791.242088,0.250000,0.082916
791.275498,0.000000,0.070711
791.308908,0.175000,0.073951
791.342317,0.275000,0.184983
791.375726,0.300000,0.127475
791.409135,0.325000,0.096014
791.442544,-0.200000,0.070711
791.475952,2.375000,0.427748
791.509360,7.425000,0.350669
791.542768,16.766667,0.946265
791.576176,34.225000,1.687593
791.609583,35.300000,0.688295
791.642990,19.666667,0.778085
791.676396,7.050000,0.783023
791.709803,0.550000,0.219374
791.743209,0.750000,0.279508
791.776615,0.175000,0.064952
791.810020,0.875000,0.337963
791.843425,0.425000,0.258300
791.876830,-0.200000,0.136931
791.910235,0.200000,0.093541
791.943640,-0.325000,0.073951
791.977044,-0.275000,0.064952
792.010448,-0.050000,0.055902
792.043851,0.350000,0.182003
792.077254,0.175000,0.108253
792.110658,0.225000,0.163459
792.144060,0.300000,0.209165
792.177463,0.100000,0.079057
792.210865,0.000000,0.117260
792.244267,-0.025000,0.041458
792.277668,0.225000,0.138632
792.311070,0.325000,0.138632
792.344471,0.525000,0.073951
792.377872,0.125000,0.096014
792.411272,-0.025000,0.089268
792.444672,0.225000,0.124373
792.478072,0.100000,0.127475
792.511472,0.050000,0.125000
792.544871,0.325000,0.108253
792.578271,-0.175000,0.064952
792.611669,0.275000,0.163459
792.645068,0.225000,0.204252
792.678466,0.050000,0.261008
792.711864,-0.050000,0.075000
792.745262,-0.050000,0.082916
792.778659,-0.150000,0.055902
792.812056,-0.025000,0.041458
792.845453,0.075000,0.054486
792.878850,0.500000,0.244949
792.912246,0.300000,0.079057
792.945642,0.050000,0.103078
792.979038,0.100000,0.086603
793.012433,0.225000,0.198037
793.045829,-0.050000,0.055902
793.079223,0.050000,0.246221
793.112618,0.325000,0.216145
793.146012,0.150000,0.216506
793.179406,0.425000,0.397453
793.212800,0.125000,0.064952
793.246194,0.125000,0.041458
793.279587,0.250000,0.103078
793.312980,0.450000,0.219374
793.346373,0.550000,0.279508
793.379765,4.725000,1.196545
793.413157,19.500000,1.045825
793.446549,34.350000,1.533175
793.479940,33.600000,1.419507
793.513332,22.366667,0.081650
793.546723,5.366667,0.598261
793.580113,2.450000,0.235850
793.613504,1.125000,0.577034
793.646894,0.025000,0.155624
793.680284,0.075000,0.081968
793.713673,-0.050000,0.043301
793.747062,0.125000,0.021651
793.780451,0.025000,0.041458
793.813840,0.350000,0.195256
793.847228,-0.100000,0.079057
793.880617,0.100000,0.100000
793.914004,0.100000,0.093541
793.947392,-0.225000,0.089268
793.980779,-0.075000,0.081968
794.014166,-0.100000,0.231840
794.047553,0.350000,0.283945
794.080940,0.400000,0.320156
794.114326,0.150000,0.204634
794.147712,0.350000,0.134629
794.181097,0.125000,0.054486
794.214483,0.350000,0.055902
794.247868,0.825000,0.364649
794.281252,0.475000,0.255869
794.314637,0.175000,0.302851
794.348021,0.275000,0.201168
794.381405,0.000000,0.176777
794.414788,0.150000,0.055902
794.448172,0.825000,0.366359
794.481555,-0.200000,0.061237
794.514938,0.250000,0.129904
794.548320,-0.200000,0.093541
794.581702,0.025000,0.064952
794.615084,0.375000,0.238157
794.648466,0.150000,0.114564
794.681847,0.175000,0.134048
794.715228,-0.250000,0.143614
794.748609,0.675000,0.364649
794.781990,-0.725000,0.216145
794.815370,0.375000,0.276981
794.848750,-0.125000,0.216145
794.882129,-0.200000,0.145774
794.915509,-0.100000,0.035355
794.948888,-0.250000,0.055902
794.982267,0.000000,0.079057
795.015645,-0.250000,0.082916
795.049023,0.250000,0.103078
795.082401,-0.025000,0.064952
795.115779,-0.150000,0.075000
795.149156,-0.075000,0.054486
795.182534,0.450000,0.090139
795.215910,0.825000,0.296595
795.249287,6.100000,0.561249
795.282663,15.000000,0.527968
795.316039,36.600000,1.187960
795.349415,59.900000,1.862458
795.382790,47.266667,1.551344
795.416165,18.000000,1.690784
795.449540,5.900000,0.885297
795.482915,2.225000,0.300780
795.516289,0.575000,0.383039
795.549663,0.400000,0.329773
795.583037,-0.025000,0.113880
795.616410,0.250000,0.055902
795.649783,-0.225000,0.096014
795.683156,0.175000,0.210283
795.716529,0.050000,0.075000
795.749901,-0.025000,0.096014
795.783273,0.025000,0.119242
795.816645,-0.250000,0.043301
795.850016,0.275000,0.089268
795.883387,0.225000,0.096014
795.916758,0.125000,0.073951
795.950129,0.025000,0.096014
795.983499,-0.125000,0.064952
796.016869,0.325000,0.124373
796.050239,-0.350000,0.043301
796.083608,0.250000,0.082916
796.116977,0.000000,0.070711
796.150346,-0.375000,0.064952
796.183714,0.350000,0.188746
796.217083,0.300000,0.106066
796.250451,-0.125000,0.073951
796.283818,0.300000,0.212132
796.317186,0.000000,0.111803
796.350553,-0.075000,0.081968
796.383920,-0.150000,0.075000
796.417286,0.200000,0.079057
796.450653,0.625000,0.402143
796.484019,0.150000,0.025000
796.517384,0.150000,0.025000
796.550750,0.025000,0.096014
796.584115,0.400000,0.145774
796.617480,0.150000,0.163936
796.650844,-0.150000,0.025000
796.684209,0.150000,0.075000
796.717573,-0.075000,0.124373
796.750936,0.250000,0.152069
796.784300,0.200000,0.079057
796.817663,-0.075000,0.064952
796.851026,0.250000,0.103078
796.884388,0.075000,0.238157
796.917751,0.550000,0.143614
796.951113,0.775000,0.230149
796.984474,0.050000,0.025000
797.017836,0.100000,0.093541
797.051197,0.450000,0.227761
797.084558,0.050000,0.134629
797.117918,1.275000,0.392707
797.151279,4.725000,0.400586
797.184639,19.700000,0.643234
797.217998,51.800000,1.664707
797.251358,51.566667,1.184448
797.284717,40.866667,0.102062
797.318076,13.833333,0.641613
797.351434,3.525000,0.559436
797.384793,1.400000,0.486056
797.418151,0.950000,0.570636
797.451508,0.400000,0.215058
797.484866,0.700000,0.310242
797.518223,0.325000,0.255869
797.551580,-0.000000,0.145774
797.584936,0.300000,0.169558
797.618292,-0.150000,0.075000
797.651648,0.075000,0.096014
797.685004,-0.100000,0.079057
797.718360,0.250000,0.129904
797.751715,0.125000,0.064952
797.785069,0.275000,0.089268
797.818424,0.325000,0.188331
797.851778,0.050000,0.167705
797.885132,-0.200000,0.183712
797.918486,0.450000,0.143614
797.951839,0.350000,0.368273
797.985192,0.050000,0.025000
798.018545,0.400000,0.086603
798.051898,0.225000,0.081968
798.085250,0.350000,0.275000
798.118602,0.000000,0.093541
798.151954,0.225000,0.041458
798.185305,-0.200000,0.070711
798.218656,0.350000,0.182003
798.252007,0.275000,0.054486
798.285357,0.300000,0.127475
798.318708,0.275000,0.129301
798.352057,0.650000,0.334477
798.385407,0.325000,0.089268
798.418756,0.300000,0.348210
798.452106,0.200000,0.093541
798.485454,0.050000,0.025000
798.518803,0.325000,0.073951
798.552151,0.075000,0.155624
798.585499,0.175000,0.021651
798.618847,-0.175000,0.064952
798.652194,0.575000,0.501716
798.685541,0.625000,0.124373
798.718888,0.275000,0.155624
798.752234,0.225000,0.274716
798.785580,0.400000,0.297909
798.818926,0.175000,0.041458
798.852272,0.200000,0.061237
798.885617,-0.175000,0.235518
798.918962,0.275000,0.143069
798.952307,0.450000,0.246221
798.985651,0.925000,0.357727
799.018996,1.300000,0.382426
799.052339,5.550000,0.757050
799.085683,26.450000,1.175532
799.119026,65.825000,2.260635
799.152369,75.525000,2.010713
799.185712,52.700000,2.102082
799.219054,19.675000,2.291936
799.252397,6.525000,1.193406
799.285738,1.725000,0.394295
799.319080,0.075000,0.096014
799.352421,0.375000,0.064952
799.385762,0.250000,0.055902
799.419103,0.175000,0.181573
799.452443,0.050000,0.103078
799.485783,0.025000,0.054486
799.519123,-0.025000,0.054486
799.552463,-0.150000,0.075000
799.585802,0.225000,0.129301
799.619141,0.625000,0.604540
799.652480,-0.225000,0.041458
799.685818,-0.125000,0.124373
799.719156,0.375000,0.129301
799.752494,0.450000,0.188746
799.785831,0.175000,0.096014
799.819169,0.275000,0.207289
799.852506,0.150000,0.082916
799.885842,0.100000,0.154110
799.919179,0.225000,0.096014
799.952515,0.525000,0.296595
799.985850,0.225000,0.096014
800.019186,0.300000,0.154110
800.052521,0.875000,0.477461
800.085856,-0.125000,0.102317
800.119191,0.900000,0.273861
800.152525,0.400000,0.262202
800.185859,0.275000,0.119242
800.219193,0.275000,0.188331
800.252526,0.350000,0.160078
800.285859,0.025000,0.041458
800.319192,0.150000,0.055902
800.352525,0.475000,0.210283
800.385857,-0.125000,0.124373
800.419189,0.475000,0.124373
800.452521,0.225000,0.041458
800.485852,0.550000,0.143614
800.519183,-0.025000,0.424816
800.552514,0.250000,0.129904
800.585844,-0.800000,0.190394
800.619175,0.175000,0.248433
800.652505,0.225000,0.174553
800.685834,0.600000,0.295804
800.719164,0.075000,0.134048
800.752493,0.750000,0.160078
800.785821,0.725000,0.167239
800.819150,0.000000,0.093541
800.852478,0.250000,0.129904
800.885806,0.375000,0.143069
800.919134,1.200000,0.271570
800.952461,6.625000,0.670238
800.985788,33.400000,1.966596
801.019115,110.166667,3.044736
801.052441,191.525000,4.831068
801.085767,150.200000,4.365919
801.119093,64.966667,2.184414
801.152419,15.775000,1.825642
801.185744,3.475000,0.786110
801.219069,0.600000,0.293684
801.252394,0.475000,0.296595
801.285718,0.200000,0.154110
801.319042,0.325000,0.167239
801.352366,0.150000,0.129904
801.385690,0.200000,0.050000
801.419013,-0.025000,0.446339
801.452336,-0.125000,0.181573
801.485658,-0.275000,0.288043
801.518981,0.400000,0.106066
801.552303,0.025000,0.073951
801.585625,0.875000,0.514022
801.618946,-0.150000,0.055902
801.652267,-0.025000,0.194856
801.685588,0.100000,0.145774
801.718909,-0.025000,0.041458
801.752229,0.650000,0.160078
801.785549,0.500000,0.348210
801.818869,0.250000,0.152069
801.852188,-0.175000,0.155624
801.885507,0.525000,0.227418
801.918826,0.375000,0.167239
801.952145,-0.225000,0.073951
801.985463,-0.025000,0.054486
802.018781,0.500000,0.269258
802.052099,0.175000,0.089268
802.085416,0.375000,0.102317
802.118733,0.025000,0.089268
802.152050,-0.050000,0.055902
802.185366,0.550000,0.403887
802.218683,0.050000,0.043301
802.251999,0.475000,0.288043
802.285314,-0.200000,0.176777
802.318630,0.400000,0.093541
802.351945,-0.175000,0.073951
802.385259,0.275000,0.221853
802.418574,0.450000,0.336341
802.451888,0.000000,0.061237
802.485202,-0.050000,0.075000
802.518515,-0.025000,0.021651
802.551829,0.150000,0.129904
802.585142,0.300000,0.145774
802.618454,0.175000,0.064952
802.651767,0.675000,0.302851
802.685079,-0.250000,0.207666
802.718391,0.450000,0.143614
802.751702,0.075000,0.096014
802.785013,0.150000,0.129904
802.818324,0.650000,0.167705
802.851635,0.900000,0.145774
802.884945,8.366667,1.020621
802.918255,50.575000,4.401899
802.951565,157.150000,5.102022
802.984874,202.175000,2.455956
803.018184,120.700000,2.848026
803.051492,41.266667,1.602472
803.084801,7.366667,0.481318
803.118109,1.550000,0.256174
803.151417,-0.125000,0.108253
803.184725,0.375000,0.108253
803.218032,0.575000,0.230149
803.251339,0.375000,0.178098
803.284646,0.100000,0.061237
803.317953,0.150000,0.075000
803.351259,-0.325000,0.129301
803.384565,-0.075000,0.041458
803.417870,0.200000,0.061237
803.451176,0.375000,0.081968
803.484481,0.650000,0.301040
803.517786,0.700000,0.229129
803.551090,0.250000,0.114564
803.584394,0.225000,0.292350
803.617698,0.000000,0.035355
803.651002,0.200000,0.093541
803.684305,0.275000,0.389511
803.717608,0.250000,0.167705
803.750910,0.225000,0.318934
803.784213,0.700000,0.215058
803.817515,1.400000,0.340955
803.850817,0.600000,0.384057
803.884118,0.075000,0.147373
803.917419,0.725000,0.219018
803.950720,0.350000,0.167705
803.984021,0.250000,0.125000
804.017321,0.325000,0.163459
804.050621,0.150000,0.195256
804.083921,0.725000,0.486538
804.117220,0.050000,0.043301
804.150519,0.225000,0.129301
804.183818,0.100000,0.061237
804.217117,-0.325000,0.021651
804.250415,0.325000,0.134048
804.283713,0.250000,0.090139
804.317011,0.050000,0.043301
804.350308,0.100000,0.127475
804.383605,0.575000,0.263095
804.416902,0.250000,0.108972
804.450198,0.775000,0.270127
804.483494,0.375000,0.143069
804.516790,0.650000,0.453459
804.550086,0.175000,0.119242
804.583381,0.075000,0.089268
804.616676,0.475000,0.184983
804.649971,0.275000,0.129301
804.683265,0.750000,0.195256
804.716559,-0.275000,0.108253
804.749853,0.500000,0.136931
804.783146,1.500000,0.196850
804.816440,12.666667,0.733428
804.849732,78.800000,3.835688
804.883025,202.950000,4.974246
804.916317,237.350000,7.189272
804.949609,120.400000,3.053891
804.982901,34.933333,2.706782
805.016192,5.800000,1.167262
805.049484,1.300000,0.496236
805.082774,-0.300000,0.061237
805.116065,0.400000,0.079057
805.149355,0.775000,0.216145
805.182645,0.125000,0.163459
805.215935,0.200000,0.154110
805.249224,0.200000,0.061237
805.282513,0.075000,0.155624
805.315802,0.300000,0.035355
805.349090,0.350000,0.134629
805.382378,0.200000,0.154110
805.415666,0.325000,0.174553
805.448954,0.275000,0.021651
805.482241,-0.025000,0.064952
805.515528,-0.100000,0.000000
805.548815,0.525000,0.253414
805.582101,0.225000,0.081968
805.615387,0.550000,0.207666
805.648673,0.775000,0.332368
805.681958,-0.050000,0.055902
805.715243,0.225000,0.041458
805.748528,1.000000,0.365718
805.781813,0.375000,0.221853
805.815097,0.850000,0.516599
805.848381,0.600000,0.527968
805.881665,0.675000,0.477461
805.914948,0.875000,0.290205
805.948231,0.000000,0.035355
805.981514,0.200000,0.117260
806.014796,0.525000,0.314990
806.048079,0.550000,0.235850
806.081360,0.300000,0.234521
806.114642,0.700000,0.293684
806.147923,0.575000,0.248433
806.181204,0.300000,0.206155
806.214485,-0.150000,0.108972
806.247765,0.200000,0.154110
806.281046,0.725000,0.397453
806.314325,1.425000,0.389511
806.347605,0.650000,0.246221
806.380884,-0.250000,0.114564
806.414163,0.100000,0.136931
806.447441,0.700000,0.295804
806.480720,0.250000,0.182003
806.513998,0.250000,0.163936
806.547275,0.650000,0.134629
806.580553,0.325000,0.184983
806.613830,0.525000,0.235518
806.647107,0.350000,0.025000
806.680383,1.150000,0.396074
806.713659,2.900000,0.375832
806.746935,10.175000,0.822629
806.780211,66.266667,3.139334
806.813486,251.975000,8.639472
806.846761,386.150000,6.673221
806.880036,260.400000,4.142614
806.913310,80.533333,5.364855
806.946584,13.850000,1.320275
806.979858,2.750000,0.814325
807.013132,0.300000,0.162019
807.046405,0.100000,0.093541
807.079678,1.500000,0.416833
807.112951,0.375000,0.207289
807.146223,-0.025000,0.143069
807.179495,-0.150000,0.167705
807.212767,-0.325000,0.155624
807.246038,0.350000,0.219374
807.279309,0.300000,0.145774
807.312580,0.175000,0.174553
807.345850,-0.100000,0.035355
807.379121,0.400000,0.297909
807.412390,0.600000,0.209165
807.445660,0.475000,0.240767
807.478929,0.325000,0.113880
807.512198,0.600000,0.266927
807.545467,0.275000,0.270127
807.578735,0.400000,0.145774
807.612004,-0.675000,0.108253
807.645271,0.250000,0.134629
807.678539,0.250000,0.160078
807.711806,0.350000,0.134629
807.745073,0.850000,0.283945
807.778340,0.550000,0.396074
807.811606,0.950000,0.235850
807.844872,0.825000,0.213234
807.878138,1.125000,0.469541
807.911403,0.050000,0.305164
807.944668,0.450000,0.175000
807.977933,0.033333,0.147196
808.011197,0.725000,0.238157
808.044462,0.250000,0.090139
808.077725,0.475000,0.274716
808.110989,0.175000,0.054486
808.144252,0.425000,0.096014
808.177515,0.975000,0.430661
808.210778,0.075000,0.096014
808.244040,0.275000,0.151554
808.277302,0.000000,0.162019
808.310564,1.000000,0.372492
808.343826,1.275000,0.623874
808.377087,0.275000,0.096014
808.410348,1.025000,0.350669
808.443608,0.825000,0.354216
808.476869,0.450000,0.286138
808.510129,0.125000,0.119242
808.543388,0.450000,0.134629
808.576648,1.325000,0.324760
808.609907,0.800000,0.061237
808.643165,1.375000,0.457404
808.676424,3.050000,0.336341
808.709682,27.950000,1.096871
808.742940,169.800000,4.972424
808.776197,476.566667,8.802438
808.809455,528.750000,15.321737
808.842712,200.566667,5.198117
808.875968,37.466667,2.110786
808.909225,5.950000,0.361421
808.942481,0.625000,0.054486
808.975736,0.425000,0.138632
809.008992,0.700000,0.340955
809.042247,0.400000,0.196850
809.075502,-0.125000,0.102317
809.108756,-0.450000,0.082916
809.142011,0.450000,0.160078
809.175265,0.850000,0.427931
809.208518,0.600000,0.154110
809.241772,0.600000,0.388909
809.275025,0.925000,0.320887
809.308277,0.200000,0.234521
809.341530,1.300000,0.478278
809.374782,1.025000,0.240767
809.408034,0.600000,0.266927
809.441285,0.500000,0.237171
809.474536,0.075000,0.281458
809.507787,0.350000,0.447912
809.541038,0.350000,0.251247
809.574288,0.300000,0.127475
809.607538,0.350000,0.090139
809.640788,0.325000,0.373120
809.674037,0.650000,0.195256
809.707286,1.025000,0.443530
809.740535,0.575000,0.167239
809.773783,0.775000,0.296595
809.807032,0.800000,0.471699
809.840279,0.375000,0.243349
809.873527,-0.050000,0.108972
809.906774,0.950000,0.114564
809.940021,1.550000,0.394493
809.973268,1.525000,0.235518
810.006514,0.450000,0.356195
810.039760,1.350000,0.389711
810.073006,0.875000,0.201168
810.106251,0.825000,0.041458
810.139497,1.075000,0.216145
810.172741,0.075000,0.096014
810.205986,0.150000,0.152069
810.239230,0.575000,0.343466
810.272474,0.625000,0.230149
810.305718,1.450000,0.650481
810.338961,0.925000,0.534293
810.372204,1.050000,0.561805
810.405447,-0.100000,0.247487
810.438689,1.000000,0.382426
810.471931,1.075000,0.616821
810.505173,1.200000,0.231840
810.538414,1.650000,0.213600
810.571656,1.000000,0.127475
810.604897,2.350000,0.493077
810.638137,7.375000,0.697652
810.671377,50.300000,1.525205
810.704617,337.200000,8.342437
810.737857,903.700000,12.062079
810.771096,807.733333,8.306799
810.804335,276.066667,7.018042
810.837574,47.366667,2.258964
810.870813,3.575000,0.337963
810.904051,1.475000,0.245904
810.937288,1.150000,0.225000
810.970526,0.975000,0.198037
811.003763,0.600000,0.451387
811.037000,0.800000,0.206155
811.070237,0.375000,0.188331
811.103473,-0.000000,0.173205
811.136709,0.925000,0.462838
811.169945,0.675000,0.362931
811.203180,0.475000,0.129301
811.236415,1.100000,0.544289
811.269650,0.275000,0.073951
811.302884,0.550000,0.114564
811.336119,0.800000,0.247487
811.369352,1.300000,0.382426
811.402586,0.500000,0.297909
811.435819,2.075000,0.472196
811.469052,-0.225000,0.155624
811.502285,-1.266667,0.378043
811.535517,-3.266667,0.745263
811.568749,1.650000,0.626997
811.601981,2.275000,0.601431
811.635212,0.225000,0.430661
811.668443,0.375000,0.129301
811.701674,0.750000,0.268095
811.734905,0.275000,0.347086
811.768135,0.400000,0.302076
811.801365,0.700000,0.276134
811.834594,0.950000,0.301040
811.867824,0.025000,0.399022
811.901053,0.950000,0.225000
811.934281,0.100000,0.339116
811.967510,0.375000,0.330483
812.000738,0.100000,0.136931
812.033965,0.925000,0.350669
812.067193,-0.200000,0.145774
812.100420,0.375000,0.129301
812.133647,0.275000,0.054486
812.166873,-0.900000,0.212132
812.200099,0.000000,0.070711
812.233325,-0.025000,0.054486
812.266551,0.250000,0.336341
812.299776,0.050000,0.129904
812.333001,0.350000,0.055902
812.366226,1.475000,0.714471
812.399450,-0.100000,0.106066
812.432674,0.475000,0.147373
812.465898,-0.150000,0.279508
812.499121,0.400000,0.145774
812.532345,0.450000,0.178536
812.565567,0.750000,0.134629
812.598790,1.325000,0.383039
812.632012,9.800000,1.050595
812.665234,77.200000,1.864470
812.698456,290.550000,8.777564
812.731677,355.600000,7.279337
812.764898,132.600000,0.765670
812.798119,25.200000,2.201988
812.831339,1.950000,0.270416
812.864559,0.375000,0.041458
812.897779,0.450000,0.275000
812.930998,0.200000,0.093541
812.964217,-0.050000,0.075000
812.997436,0.100000,0.293684
813.030655,0.050000,0.075000
813.063873,0.425000,0.472196
813.097091,0.000000,0.079057
813.130308,-0.325000,0.210283
813.163526,-0.075000,0.089268
813.196743,0.150000,0.201556
813.229959,0.075000,0.096014
813.263176,-0.025000,0.064952
813.296392,-0.175000,0.054486
813.329607,0.050000,0.160078
813.362823,0.400000,0.165831
813.396038,0.025000,0.089268
813.429253,-0.175000,0.073951
813.462467,-0.150000,0.152069
813.495682,-0.175000,0.096014
813.528895,-0.050000,0.055902
813.562109,0.125000,0.054486
813.595322,0.050000,0.025000
813.628535,0.050000,0.055902
813.661748,0.125000,0.064952
813.694960,0.075000,0.163459
813.728172,-0.150000,0.025000
813.761384,-0.150000,0.108972
813.794596,-0.225000,0.155624
813.827807,-0.575000,0.096014
813.861017,0.175000,0.354216
813.894228,0.000000,0.117260
813.927438,0.175000,0.129301
813.960648,0.275000,0.081968
813.993858,0.350000,0.241091
814.027067,0.175000,0.073951
814.060276,0.150000,0.248747
814.093485,0.500000,0.382426
814.126693,-0.250000,0.103078
814.159901,-0.200000,0.122474
814.193109,-0.525000,0.096014
814.226316,0.250000,0.125000
814.259523,0.050000,0.055902
814.292730,0.025000,0.108253
814.325936,0.250000,0.055902
814.359143,0.175000,0.054486
814.392348,0.000000,0.035355
814.425554,0.350000,0.301040
814.458759,0.450000,0.213600
814.491964,-0.100000,0.162019
814.525169,0.225000,0.081968
814.558373,-0.075000,0.064952
814.591577,0.100000,0.183712
814.624781,-0.175000,0.054486
814.657984,0.700000,0.141421
