#{
#    "background_file": "Backgrounds\\\\bg_787.999nm_16bin_197st_244en_10.0s_110g_4x_1_seq.txt",
#    "ccd_image_settings": [
#        1,
#        16,
#        1,
#        1600,
#        197,
#        244
#    ],
#    "ccd_temperature": "-88",
#    "cdRatios": {
#        "mean": 0.9235893885428406,
#        "std": 0.008456407157232828
#    },
#    "center_lambda": 788.0,
#    "comments": "",
#    "dark_region": 0.2570706556989428,
#    "date": "11/17/19 14:15:45PM",
#    "eff_field": 1.5,
#    "exposure": 10.0,
#    "fel_lambda": "15.0",
#    "fel_pol": "H",
#    "fel_pulses": 40,
#    "fel_pyro_cal": "0.017",
#    "fel_reprate": "1.07",
#    "fel_transmission": "1.0",
#    "fel_transmission_fits": {
#        "A": 1.0,
#        "C": 0.0,
#        "Mu": 0.0
#    },
#    "fieldInt": {
#        "mean": 9409.713772727271,
#        "std": 486.3620889733329
#    },
#    "fieldStrength": {
#        "mean": 44.486022727272726,
#        "std": 1.19172637147352
#    },
#    "fpTime": {
#        "mean": 1.1842316709109708,
#        "std": 0.09065488826991093
#    },
#    "gain": 110,
#    "grating": 3,
#    "images_in_sequence": [
#        "hsg_SpotD_crystal16_a45_HAna105.txt",
#        "hsg_SpotD_crystal16_a45_HAna106.txt",
#        "hsg_SpotD_crystal16_a45_HAna107.txt",
#        "hsg_SpotD_crystal16_a45_HAna108.txt"
#    ],
#    "nir_lambda": "820.9918",
#    "nir_pola": "45",
#    "nir_polg": "0",
#    "nir_power": "100.0",
#    "pulseEnergies": {
#        "mean": 2.044568181818182,
#        "std": 0.12084451967686631
#    },
#    "pyroVoltage": {
#        "mean": 0.13030983844114696,
#        "std": 0.008701185967653458
#    },
#    "rotatorAngle": 202.4999963378817,
#    "sample_Temp": "58",
#    "sample_name": "L001218.C3",
#    "series": "SpotD_16_45",
#    "slits": "60",
#    "spec_step": "",
#    "window_trans": 0.92,
#    "y_max": 2,
#    "y_min": 1
#}
#
#
#
#
#
#
#
#
#
#
#
#
#
#
#
#
#
#
#
#
#
#
#
#
#
#
Wavelength,Signal,error
nm,arb. u.,arb.u.
Wavelength,SpotD_16_45,error
761.200217,0.025000,0.041458
761.233859,0.100000,0.086603
761.267500,0.025000,0.041458
761.301141,-0.125000,0.181573
761.334781,0.250000,0.175000
761.368422,-0.200000,0.117260
761.402062,0.825000,0.542419
761.435702,-0.300000,0.061237
761.469342,0.550000,0.678694
761.502981,0.125000,0.064952
761.536620,-0.075000,0.054486
761.570259,-0.100000,0.050000
761.603898,-0.075000,0.113880
761.637537,-0.300000,0.035355
761.671175,-0.200000,0.061237
761.704813,-0.050000,0.055902
761.738451,-0.025000,0.073951
761.772088,0.350000,0.248747
761.805726,-0.025000,0.113880
761.839363,-0.175000,0.073951
761.873000,-0.275000,0.108253
761.906636,0.250000,0.188746
761.940273,-0.050000,0.075000
761.973909,0.025000,0.064952
762.007545,0.325000,0.096014
762.041180,-0.425000,0.096014
762.074816,0.150000,0.160078
762.108451,0.150000,0.025000
762.142086,0.100000,0.093541
762.175720,0.025000,0.021651
762.209355,0.075000,0.081968
762.242989,0.225000,0.054486
762.276623,0.325000,0.198037
762.310257,0.725000,0.715345
762.343890,-0.225000,0.151554
762.377524,-0.125000,0.096014
762.411157,0.275000,0.163459
762.444789,0.500000,0.117260
762.478422,0.250000,0.114564
762.512054,0.100000,0.100000
762.545686,0.325000,0.224653
762.579318,0.100000,0.061237
762.612950,0.425000,0.267804
762.646581,0.375000,0.276981
762.680212,0.125000,0.096014
762.713843,0.025000,0.113880
762.747474,0.150000,0.043301
762.781104,0.100000,0.127475
762.814734,-0.475000,0.041458
762.848364,-0.275000,0.096014
762.881994,-0.075000,0.041458
762.915623,0.200000,0.117260
762.949252,-0.025000,0.041458
762.982881,0.375000,0.188331
763.016510,0.475000,0.167239
763.050139,0.250000,0.227761
763.083767,0.200000,0.169558
763.117395,0.850000,0.343693
763.151023,0.325000,0.163459
763.184650,0.525000,0.216145
763.218277,-0.375000,0.021651
763.251904,0.025000,0.174553
763.285531,-0.125000,0.073951
763.319158,0.250000,0.246221
763.352784,-0.125000,0.124373
763.386410,0.200000,0.348210
763.420036,-0.025000,0.178098
763.453661,1.125000,0.253414
763.487287,-0.050000,0.178536
763.520912,-1.233333,0.073598
763.554537,-0.050000,0.090139
763.588161,0.000000,0.106066
763.621786,-0.100000,0.079057
763.655410,0.150000,0.075000
763.689034,-0.275000,0.041458
763.722657,0.250000,0.160078
763.756281,0.225000,0.041458
763.789904,-0.250000,0.055902
763.823527,-0.275000,0.073951
763.857150,-0.225000,0.041458
763.890772,-0.150000,0.103078
763.924394,-0.075000,0.096014
763.958016,-0.050000,0.082916
763.991638,0.100000,0.035355
764.025260,-0.075000,0.054486
764.058881,0.000000,0.035355
764.092502,-0.325000,0.041458
764.126123,0.300000,0.035355
764.159743,0.100000,0.050000
764.193363,-0.150000,0.055902
764.226983,0.050000,0.025000
764.260603,0.175000,0.041458
764.294223,-0.175000,0.089268
764.327842,0.150000,0.134629
764.361461,-0.050000,0.114564
764.395080,0.075000,0.119242
764.428699,1.000000,0.382426
764.462317,0.350000,0.090139
764.495935,0.250000,0.391312
764.529553,0.100000,0.176777
764.563170,0.575000,0.143069
764.596788,0.350000,0.195256
764.630405,0.225000,0.454663
764.664022,-0.100000,0.061237
764.697638,0.325000,0.113880
764.731255,0.325000,0.184983
764.764871,0.525000,0.263095
764.798487,-0.025000,0.272431
764.832103,0.025000,0.155624
764.865718,0.425000,0.143069
764.899333,0.025000,0.081968
764.932948,-0.075000,0.054486
764.966563,0.050000,0.147902
765.000177,-0.025000,0.089268
765.033792,0.050000,0.055902
765.067406,0.025000,0.054486
765.101019,0.025000,0.081968
765.134633,-0.325000,0.096014
765.168246,0.000000,0.061237
765.201859,0.350000,0.043301
765.235472,0.225000,0.174553
765.269084,0.100000,0.061237
765.302697,-0.050000,0.055902
765.336309,-0.025000,0.041458
765.369920,0.125000,0.064952
765.403532,0.250000,0.225000
765.437143,-0.200000,0.079057
765.470754,0.150000,0.090139
765.504365,0.075000,0.124373
765.537976,0.300000,0.154110
765.571586,-0.050000,0.075000
765.605196,-0.275000,0.073951
765.638806,0.025000,0.198037
765.672416,-0.025000,0.041458
765.706025,0.050000,0.075000
765.739634,0.025000,0.041458
765.773243,0.275000,0.041458
765.806851,0.075000,0.119242
765.840460,0.050000,0.075000
765.874068,0.075000,0.054486
765.907676,-0.200000,0.086603
765.941284,0.075000,0.041458
765.974891,-0.100000,0.035355
766.008498,0.000000,0.106066
766.042105,0.175000,0.227418
766.075712,-0.300000,0.070711
766.109318,-0.225000,0.210283
766.142924,-0.150000,0.055902
766.176530,-0.725000,0.021651
766.210136,-0.325000,0.143069
766.243741,-0.025000,0.041458
766.277347,0.025000,0.194856
766.310951,-0.200000,0.061237
766.344556,0.075000,0.041458
766.378161,0.325000,0.124373
766.411765,-0.250000,0.090139
766.445369,-0.100000,0.111803
766.478973,-0.075000,0.198037
766.512576,-0.075000,0.147373
766.546179,-0.100000,0.061237
766.579782,-0.025000,0.073951
766.613385,0.250000,0.225000
766.646988,-0.325000,0.113880
766.680590,0.050000,0.043301
766.714192,0.150000,0.114564
766.747794,-0.175000,0.041458
766.781395,0.200000,0.035355
766.814996,0.150000,0.394493
766.848597,0.025000,0.041458
766.882198,-0.050000,0.075000
766.915799,0.075000,0.073951
766.949399,0.025000,0.073951
766.982999,0.000000,0.145774
767.016599,-0.200000,0.145774
767.050198,0.425000,0.283670
767.083798,0.075000,0.155624
767.117397,0.000000,0.035355
767.150996,0.025000,0.081968
767.184594,-0.400000,0.061237
767.218193,0.125000,0.178098
767.251791,0.050000,0.195256
767.285389,0.200000,0.247487
767.318986,-0.225000,0.054486
767.352583,0.375000,0.296595
767.386181,-0.100000,0.035355
767.419777,0.025000,0.096014
767.453374,0.450000,0.188746
767.486970,-0.225000,0.096014
767.520567,0.125000,0.041458
767.554162,0.050000,0.103078
767.587758,0.075000,0.073951
767.621353,0.500000,0.314245
767.654949,-0.150000,0.043301
767.688543,0.350000,0.201556
767.722138,0.050000,0.082916
767.755732,0.125000,0.108253
767.789327,-0.150000,0.082916
767.822921,-0.400000,0.070711
767.856514,-0.175000,0.064952
767.890108,0.050000,0.108972
767.923701,-0.025000,0.119242
767.957294,0.150000,0.025000
767.990886,0.300000,0.162019
768.024479,-0.225000,0.021651
768.058071,-0.050000,0.025000
768.091663,-0.175000,0.073951
768.125255,0.150000,0.129904
768.158846,1.000000,0.127475
768.192437,-0.525000,0.064952
768.226028,0.000000,0.061237
768.259619,0.050000,0.043301
768.293209,-0.125000,0.064952
768.326799,0.350000,0.288314
768.360389,0.275000,0.041458
768.393979,-0.075000,0.054486
768.427568,0.300000,0.162019
768.461158,-0.050000,0.043301
768.494747,-0.150000,0.043301
768.528335,-0.050000,0.103078
768.561924,0.725000,0.374792
768.595512,0.025000,0.113880
768.629100,-0.025000,0.041458
768.662688,-0.025000,0.073951
768.696275,-0.150000,0.055902
768.729862,-0.100000,0.093541
768.763449,0.250000,0.103078
768.797036,-0.150000,0.075000
768.830623,0.050000,0.082916
768.864209,0.125000,0.096014
768.897795,0.200000,0.154110
768.931381,0.225000,0.073951
768.964966,-0.100000,0.145774
768.998551,0.375000,0.188331
769.032136,0.150000,0.286138
769.065721,-0.150000,0.075000
769.099305,-0.200000,0.061237
769.132890,-0.050000,0.108972
769.166474,0.125000,0.134048
769.200057,-0.250000,0.075000
769.233641,0.125000,0.119242
769.267224,0.275000,0.281458
769.300807,-0.150000,0.167705
769.334390,-0.025000,0.081968
769.367972,0.000000,0.093541
769.401555,0.050000,0.248747
769.435137,-0.175000,0.096014
769.468718,0.075000,0.064952
769.502300,-0.100000,0.035355
769.535881,-0.075000,0.198037
769.569462,-0.300000,0.154110
769.603043,-0.225000,0.102317
769.636623,0.175000,0.155624
769.670204,0.425000,0.320887
769.703784,0.225000,0.064952
769.737364,0.275000,0.238157
769.770943,0.200000,0.093541
769.804522,-0.150000,0.055902
769.838101,-0.100000,0.079057
769.871680,-0.100000,0.079057
769.905259,-0.325000,0.073951
769.938837,-0.025000,0.064952
769.972415,0.050000,0.103078
770.005993,0.050000,0.055902
770.039570,0.075000,0.102317
770.073147,0.300000,0.093541
770.106724,-0.050000,0.090139
770.140301,0.225000,0.054486
770.173878,0.350000,0.305164
770.207454,0.125000,0.147373
770.241030,0.025000,0.064952
770.274606,0.225000,0.089268
770.308181,0.125000,0.073951
770.341757,0.125000,0.041458
770.375332,0.350000,0.195256
770.408906,0.150000,0.082916
770.442481,0.200000,0.234521
770.476055,-0.225000,0.073951
770.509629,0.150000,0.143614
770.543203,0.050000,0.055902
770.576776,0.075000,0.089268
770.610350,0.125000,0.041458
770.643923,-0.225000,0.089268
770.677495,-0.025000,0.041458
770.711068,0.075000,0.081968
770.744640,0.050000,0.055902
770.778212,0.000000,0.141421
770.811784,-0.125000,0.021651
770.845356,0.175000,0.096014
770.878927,0.325000,0.096014
770.912498,0.225000,0.138632
770.946069,0.275000,0.361205
770.979639,-0.125000,0.021651
771.013209,0.250000,0.075000
771.046779,-0.350000,0.143614
771.080349,-0.025000,0.041458
771.113919,0.050000,0.025000
771.147488,0.150000,0.082916
771.181057,0.250000,0.055902
771.214626,-0.050000,0.075000
771.248194,0.050000,0.326917
771.281762,-0.075000,0.041458
771.315330,-0.150000,0.025000
771.348898,0.050000,0.043301
771.382465,-0.175000,0.119242
771.416033,-0.150000,0.055902
771.449600,0.125000,0.113880
771.483166,-0.100000,0.093541
771.516733,0.300000,0.234521
771.550299,-0.025000,0.129301
771.583865,0.025000,0.064952
771.617431,0.175000,0.194856
771.650996,0.000000,0.035355
771.684562,0.025000,0.054486
771.718127,-0.125000,0.081968
771.751691,0.000000,0.079057
771.785256,-0.150000,0.055902
771.818820,0.100000,0.209165
771.852384,0.075000,0.064952
771.885948,0.075000,0.108253
771.919511,0.000000,0.093541
771.953074,0.350000,0.090139
771.986637,0.100000,0.035355
772.020200,0.200000,0.093541
772.053762,0.200000,0.127475
772.087325,-0.050000,0.025000
772.120887,-0.225000,0.089268
772.154448,0.200000,0.050000
772.188010,0.125000,0.155624
772.221571,-0.225000,0.041458
772.255132,-0.075000,0.041458
772.288692,0.450000,0.225000
772.322253,0.250000,0.369966
772.355813,0.175000,0.174553
772.389373,-0.075000,0.184983
772.422933,-0.150000,0.114564
772.456492,0.250000,0.114564
772.490051,0.325000,0.138632
772.523610,0.125000,0.054486
772.557169,-0.025000,0.081968
772.590727,0.025000,0.102317
772.624285,0.125000,0.073951
772.657843,0.350000,0.207666
772.691401,-0.425000,0.041458
772.724958,0.000000,0.061237
772.758515,-0.075000,0.064952
772.792072,-0.050000,0.025000
772.825629,-0.100000,0.093541
772.859185,0.100000,0.035355
772.892741,-0.050000,0.143614
772.926297,0.325000,0.143069
772.959853,0.025000,0.089268
772.993408,-0.700000,0.035355
773.026963,0.000000,0.070711
773.060518,-0.025000,0.073951
773.094073,-0.025000,0.129301
773.127627,0.150000,0.082916
773.161181,0.175000,0.064952
773.194735,0.275000,0.267804
773.228289,0.000000,0.127475
773.261842,0.075000,0.064952
773.295395,0.375000,0.313000
773.328948,0.375000,0.188331
773.362500,0.275000,0.151554
773.396053,0.150000,0.246221
773.429605,-0.075000,0.073951
773.463157,0.175000,0.064952
773.496708,0.150000,0.075000
773.530260,-0.350000,0.055902
773.563811,-0.325000,0.073951
773.597361,-0.025000,0.054486
773.630912,0.400000,0.322102
773.664462,0.350000,0.201556
773.698012,-0.000000,0.209165
773.731562,-0.075000,0.054486
773.765111,0.150000,0.167705
773.798661,0.000000,0.061237
773.832210,0.125000,0.143069
773.865758,0.025000,0.064952
773.899307,0.050000,0.055902
773.932855,0.125000,0.054486
773.966403,-0.125000,0.073951
773.999951,0.175000,0.129301
774.033498,0.275000,0.245904
774.067046,0.225000,0.198037
774.100593,0.250000,0.082916
774.134139,0.350000,0.134629
774.167686,-0.125000,0.073951
774.201232,0.150000,0.055902
774.234778,0.100000,0.050000
774.268324,0.225000,0.143069
774.301869,0.025000,0.041458
774.335414,-0.175000,0.096014
774.368959,0.150000,0.108972
774.402504,0.075000,0.041458
774.436048,-0.200000,0.070711
774.469592,0.100000,0.050000
774.503136,-0.075000,0.073951
774.536680,0.100000,0.070711
774.570223,0.275000,0.188331
774.603766,0.425000,0.143069
774.637309,0.075000,0.073951
774.670852,0.125000,0.073951
774.704394,-0.275000,0.054486
774.737936,-0.350000,0.082916
774.771478,-0.125000,0.073951
774.805020,0.175000,0.181573
774.838561,0.075000,0.073951
774.872102,0.400000,0.035355
774.905643,0.100000,0.154110
774.939183,0.275000,0.129301
774.972724,0.275000,0.129301
775.006264,-0.175000,0.054486
775.039804,0.300000,0.127475
775.073343,-0.150000,0.192029
775.106882,-0.200000,0.070711
775.140421,0.125000,0.194856
775.173960,-0.225000,0.129301
775.207499,-0.125000,0.178098
775.241037,0.100000,0.061237
775.274575,-0.025000,0.102317
775.308113,-0.075000,0.041458
775.341650,0.125000,0.064952
775.375187,0.150000,0.160078
775.408724,-0.275000,0.108253
775.442261,-0.075000,0.143069
775.475798,-0.175000,0.041458
775.509334,0.100000,0.035355
775.542870,-0.000000,0.093541
775.576405,-0.200000,0.035355
775.609941,0.050000,0.114564
775.643476,0.150000,0.082916
775.677011,-0.025000,0.412879
775.710546,0.175000,0.073951
775.744080,0.450000,0.082916
775.777614,0.350000,0.227761
775.811148,0.125000,0.041458
775.844682,-0.075000,0.113880
775.878215,-0.300000,0.070711
775.911748,0.075000,0.064952
775.945281,0.175000,0.129301
775.978814,-0.250000,0.075000
776.012346,0.450000,0.305164
776.045878,-0.025000,0.155624
776.079410,0.150000,0.043301
776.112941,0.375000,0.108253
776.146473,0.400000,0.519615
776.180004,-0.200000,0.035355
776.213535,0.075000,0.073951
776.247065,0.150000,0.055902
776.280595,0.275000,0.240767
776.314125,0.300000,0.234521
776.347655,0.000000,0.269258
776.381185,-0.325000,0.064952
776.414714,0.200000,0.070711
776.448243,0.100000,0.093541
776.481772,0.325000,0.369755
776.515300,-0.025000,0.064952
776.548828,-0.025000,0.096014
776.582356,-0.275000,0.089268
776.615884,-0.050000,0.082916
776.649411,0.300000,0.136931
776.682938,0.525000,0.429207
776.716465,0.125000,0.081968
776.749992,0.050000,0.055902
776.783518,0.025000,0.089268
776.817044,0.500000,0.206155
776.850570,0.025000,0.064952
776.884096,0.275000,0.073951
776.917621,0.350000,0.163936
776.951146,0.150000,0.114564
776.984671,-0.350000,0.055902
777.018196,-0.175000,0.054486
777.051720,0.025000,0.054486
777.085244,0.400000,0.154110
777.118768,-0.250000,0.163936
777.152292,0.325000,0.201168
777.185815,0.125000,0.073951
777.219338,-0.175000,0.054486
777.252861,-0.150000,0.043301
777.286383,-0.100000,0.070711
777.319905,-0.225000,0.041458
777.353427,0.175000,0.064952
777.386949,0.200000,0.061237
777.420471,0.100000,0.035355
777.453992,-0.025000,0.054486
777.487513,0.075000,0.021651
777.521033,-0.250000,0.090139
777.554554,0.025000,0.191621
777.588074,0.550000,0.317214
777.621594,0.100000,0.070711
777.655114,0.125000,0.021651
777.688633,0.200000,0.000000
777.722152,0.000000,0.035355
777.755671,-0.050000,0.055902
777.789190,0.100000,0.061237
777.822708,-0.225000,0.096014
777.856226,0.075000,0.119242
777.889744,0.050000,0.103078
777.923261,-0.075000,0.041458
777.956779,0.225000,0.054486
777.990296,-0.150000,0.055902
778.023812,-0.125000,0.134048
778.057329,-0.125000,0.021651
778.090845,-0.100000,0.106066
778.124361,0.000000,0.035355
778.157877,-0.075000,0.041458
778.191392,-0.225000,0.064952
778.224908,-0.075000,0.064952
778.258423,0.000000,0.050000
778.291937,0.175000,0.213234
778.325452,0.100000,0.035355
778.358966,-0.100000,0.061237
778.392480,-0.025000,0.064952
778.425993,-0.100000,0.050000
778.459507,0.200000,0.122474
778.493020,0.150000,0.125000
778.526533,0.500000,0.385681
778.560045,-0.325000,0.073951
778.593558,0.025000,0.073951
778.627070,-0.000000,0.154110
778.660582,0.550000,0.328824
778.694093,1.475000,0.761064
778.727605,0.075000,0.089268
778.761116,0.225000,0.113880
778.794626,0.175000,0.081968
778.828137,0.725000,0.572686
778.861647,-0.125000,0.021651
778.895157,0.225000,0.102317
778.928667,0.075000,0.081968
778.962176,0.325000,0.143069
778.995686,0.050000,0.025000
779.029194,0.100000,0.061237
779.062703,0.125000,0.054486
779.096212,0.050000,0.108972
779.129720,0.450000,0.248747
779.163228,-0.275000,0.054486
779.196735,0.075000,0.041458
779.230243,-0.150000,0.400780
779.263750,-0.075000,0.102317
779.297257,-0.025000,0.021651
779.330763,0.200000,0.231840
779.364269,0.300000,0.289396
779.397776,0.675000,0.384667
779.431281,0.050000,0.090139
779.464787,0.250000,0.160078
779.498292,0.250000,0.134629
779.531797,0.025000,0.064952
779.565302,0.025000,0.054486
779.598806,0.225000,0.073951
779.632311,0.225000,0.041458
779.665814,0.150000,0.025000
779.699318,0.025000,0.041458
779.732822,0.575000,0.283670
779.766325,0.200000,0.079057
779.799828,0.050000,0.043301
779.833330,0.050000,0.043301
779.866833,-0.275000,0.096014
779.900335,-0.050000,0.055902
779.933837,0.300000,0.183712
779.967338,-0.050000,0.082916
780.000840,0.050000,0.075000
780.034341,-0.050000,0.090139
780.067841,0.225000,0.253414
780.101342,-0.025000,0.113880
780.134842,0.200000,0.106066
780.168342,-0.200000,0.079057
780.201842,0.075000,0.041458
780.235341,0.575000,0.108253
780.268841,0.025000,0.041458
780.302340,-0.125000,0.096014
780.335838,0.150000,0.163936
780.369337,0.000000,0.061237
780.402835,0.400000,0.237171
780.436333,0.375000,0.054486
780.469830,0.600000,0.250000
780.503328,1.050000,0.332603
780.536825,0.975000,0.420379
780.570322,0.425000,0.096014
780.603818,0.000000,0.050000
780.637315,0.075000,0.081968
780.670811,0.075000,0.041458
780.704306,-0.225000,0.073951
780.737802,0.250000,0.082916
780.771297,0.425000,0.163459
780.804792,0.025000,0.113880
780.838287,0.150000,0.216506
780.871781,0.075000,0.134048
780.905276,-0.250000,0.043301
780.938770,-0.225000,0.041458
780.972263,0.000000,0.122474
781.005757,0.350000,0.108972
781.039250,-0.100000,0.061237
781.072743,0.150000,0.025000
781.106235,-0.125000,0.064952
781.139728,-0.125000,0.054486
781.173220,0.025000,0.073951
781.206712,0.200000,0.122474
781.240203,0.050000,0.043301
781.273694,0.200000,0.203101
781.307185,0.600000,0.226385
781.340676,-0.025000,0.021651
781.374167,0.475000,0.285865
781.407657,0.350000,0.090139
781.441147,0.100000,0.150000
781.474636,-0.025000,0.089268
781.508126,0.125000,0.138632
781.541615,0.375000,0.167239
781.575104,-0.050000,0.103078
781.608593,0.000000,0.050000
781.642081,-0.075000,0.041458
781.675569,-0.075000,0.021651
781.709057,0.025000,0.041458
781.742544,0.325000,0.113880
781.776032,0.000000,0.106066
781.809519,0.150000,0.336341
781.843006,0.125000,0.113880
781.876492,0.025000,0.113880
781.909978,0.050000,0.075000
781.943464,0.175000,0.096014
781.976950,0.175000,0.167239
782.010435,0.050000,0.160078
782.043921,0.300000,0.209165
782.077406,0.175000,0.073951
782.110890,0.350000,0.251247
782.144375,-0.000000,0.079057
782.177859,0.125000,0.064952
782.211343,0.000000,0.176777
782.244826,0.350000,0.163936
782.278309,0.550000,0.103078
782.311792,1.725000,0.524851
782.345275,1.025000,0.163459
782.378758,1.450000,0.553963
782.412240,0.725000,0.357727
782.445722,-0.175000,0.054486
782.479204,0.100000,0.035355
782.512685,-0.125000,0.124373
782.546166,-0.050000,0.090139
782.579647,-0.025000,0.041458
782.613128,0.225000,0.167239
782.646608,0.075000,0.054486
782.680088,0.000000,0.061237
782.713568,-0.025000,0.108253
782.747048,0.150000,0.043301
782.780527,-0.275000,0.138632
782.814006,0.075000,0.108253
782.847485,0.025000,0.054486
782.880963,-0.225000,0.021651
782.914442,-0.050000,0.075000
782.947920,-0.025000,0.021651
782.981397,0.150000,0.114564
783.014875,0.075000,0.064952
783.048352,0.025000,0.041458
783.081829,0.100000,0.093541
783.115306,0.100000,0.122474
783.148782,0.025000,0.073951
783.182258,-0.125000,0.021651
783.215734,0.275000,0.184983
783.249209,0.050000,0.195256
783.282685,0.100000,0.106066
783.316160,0.300000,0.176777
783.349635,-0.125000,0.041458
783.383109,-0.150000,0.134629
783.416583,-0.200000,0.035355
783.450057,-0.075000,0.089268
783.483531,0.050000,0.025000
783.517004,0.375000,0.188331
783.550477,-0.050000,0.075000
783.583950,0.300000,0.106066
783.617423,0.100000,0.050000
783.650895,0.200000,0.035355
783.684367,0.150000,0.143614
783.717839,-0.500000,0.035355
783.751311,-0.225000,0.073951
783.784782,0.100000,0.035355
783.818253,0.175000,0.073951
783.851724,0.200000,0.000000
783.885194,-0.025000,0.021651
783.918665,-0.125000,0.073951
783.952134,0.600000,0.154110
783.985604,0.225000,0.054486
784.019074,0.250000,0.114564
784.052543,0.350000,0.227761
784.086012,0.200000,0.061237
784.119480,0.300000,0.145774
784.152948,4.025000,0.822629
784.186416,1.900000,0.035355
784.219884,1.950000,0.493077
784.253352,1.425000,0.248433
784.286819,-0.150000,0.125000
784.320286,-0.050000,0.090139
784.353753,0.175000,0.096014
784.387219,0.175000,0.216145
784.420685,0.000000,0.050000
784.454151,0.250000,0.055902
784.487617,0.100000,0.111803
784.521082,0.025000,0.054486
784.554547,0.350000,0.055902
784.588012,0.100000,0.079057
784.621477,0.100000,0.035355
784.654941,0.050000,0.055902
784.688405,0.125000,0.064952
784.721869,0.000000,0.035355
784.755332,-0.150000,0.055902
784.788795,-0.100000,0.061237
784.822258,0.125000,0.021651
784.855721,0.175000,0.096014
784.889183,0.025000,0.041458
784.922646,0.025000,0.064952
784.956107,0.125000,0.073951
784.989569,-0.100000,0.122474
785.023030,0.050000,0.227761
785.056491,-0.125000,0.041458
785.089952,0.250000,0.082916
785.123413,0.000000,0.061237
785.156873,-0.250000,0.055902
785.190333,0.150000,0.103078
785.223792,0.325000,0.041458
785.257252,0.175000,0.064952
785.290711,0.050000,0.075000
785.324170,0.150000,0.134629
785.357629,0.025000,0.054486
785.391087,0.175000,0.073951
785.424545,-0.025000,0.073951
785.458003,0.000000,0.061237
785.491460,0.125000,0.198037
785.524918,0.125000,0.073951
785.558375,0.150000,0.025000
785.591831,-0.025000,0.096014
785.625288,0.075000,0.054486
785.658744,0.125000,0.041458
785.692200,0.075000,0.119242
785.725655,0.150000,0.075000
785.759111,0.125000,0.021651
785.792566,0.025000,0.119242
785.826021,0.025000,0.081968
785.859475,0.250000,0.219374
785.892930,0.325000,0.184983
785.926384,0.750000,0.235850
785.959837,1.575000,0.248433
785.993291,2.975000,0.108253
786.026744,2.100000,0.769740
786.060197,1.825000,0.230149
786.093649,0.500000,0.169558
786.127102,0.225000,0.174553
786.160554,-0.025000,0.021651
786.194006,0.075000,0.041458
786.227457,0.225000,0.240767
786.260909,0.650000,0.477624
786.294360,0.175000,0.270127
786.327810,-0.075000,0.207289
786.361261,0.200000,0.106066
786.394711,0.025000,0.021651
786.428161,0.000000,0.035355
786.461611,0.150000,0.201556
786.495060,0.025000,0.054486
786.528509,-0.025000,0.041458
786.561958,0.025000,0.021651
786.595407,0.000000,0.061237
786.628855,0.325000,0.113880
786.662303,0.600000,0.637377
786.695751,0.175000,0.096014
786.729198,0.200000,0.165831
786.762645,0.050000,0.055902
786.796092,-0.200000,0.035355
786.829539,0.200000,0.183712
786.862985,-0.125000,0.124373
786.896431,-0.025000,0.073951
786.929877,0.300000,0.061237
786.963323,0.025000,0.108253
786.996768,0.050000,0.025000
787.030213,-0.100000,0.093541
787.063658,-0.200000,0.106066
787.097102,0.425000,0.283670
787.130547,-0.350000,0.075000
787.163991,-0.225000,0.134048
787.197434,-0.325000,0.041458
787.230878,0.350000,0.025000
787.264321,0.400000,0.215058
787.297764,0.175000,0.178098
787.331206,0.225000,0.041458
787.364648,0.100000,0.079057
787.398090,0.375000,0.240767
787.431532,0.150000,0.055902
787.464974,-0.050000,0.075000
787.498415,-0.275000,0.021651
787.531856,0.200000,0.117260
787.565296,-0.375000,0.108253
787.598737,0.150000,0.075000
787.632177,0.275000,0.143069
787.665617,-0.250000,0.055902
787.699056,-0.125000,0.064952
787.732496,-0.100000,0.122474
787.765935,0.550000,0.292617
787.799373,1.825000,0.722301
787.832812,2.825000,0.450521
787.866250,3.300000,0.491172
787.899688,5.000000,0.671751
787.933126,1.650000,0.305164
787.966563,0.800000,0.136931
788.000000,0.650000,0.461655
788.033437,0.225000,0.143069
788.066873,0.075000,0.054486
788.100310,0.300000,0.289396
788.133746,0.100000,0.093541
788.167181,0.150000,0.075000
788.200617,0.050000,0.055902
788.234052,0.450000,0.114564
788.267487,-0.125000,0.073951
788.300921,0.050000,0.143614
788.334356,0.075000,0.021651
788.367790,0.375000,0.129301
788.401224,0.275000,0.021651
788.434657,-0.325000,0.054486
788.468090,-0.025000,0.064952
788.501523,0.150000,0.025000
788.534956,0.025000,0.041458
788.568389,0.100000,0.093541
788.601821,0.100000,0.061237
788.635253,0.000000,0.061237
788.668684,0.100000,0.093541
788.702116,0.075000,0.064952
788.735547,-0.050000,0.075000
788.768977,0.025000,0.102317
788.802408,0.075000,0.064952
788.835838,0.050000,0.114564
788.869268,0.175000,0.134048
788.902698,0.050000,0.043301
788.936127,0.000000,0.035355
788.969556,0.150000,0.125000
789.002985,0.200000,0.183712
789.036414,0.125000,0.041458
789.069842,-0.025000,0.064952
789.103270,0.350000,0.216506
789.136698,-0.050000,0.055902
789.170125,0.675000,0.392707
789.203552,0.050000,0.103078
789.236979,0.100000,0.061237
789.270406,0.200000,0.223607
789.303832,0.425000,0.314990
789.337258,0.025000,0.129301
789.370684,-0.075000,0.138632
789.404110,0.050000,0.082916
789.437535,0.400000,0.176777
789.470960,0.125000,0.113880
789.504385,0.075000,0.129301
789.537809,0.025000,0.089268
789.571233,0.250000,0.114564
789.604657,0.525000,0.290205
789.638081,0.275000,0.188331
789.671504,1.375000,0.096014
789.704927,4.425000,0.703895
789.738350,3.733333,0.455979
789.771772,5.650000,0.750417
789.805195,2.250000,0.511737
789.838617,1.225000,0.491649
789.872038,0.300000,0.122474
789.905460,-0.325000,0.181573
789.938881,-0.025000,0.147373
789.972302,-0.175000,0.041458
790.005722,0.050000,0.025000
790.039143,0.000000,0.150000
790.072563,0.100000,0.127475
790.105982,0.150000,0.055902
790.139402,0.275000,0.155624
790.172821,-0.050000,0.246221
790.206240,0.125000,0.174553
790.239658,0.125000,0.108253
790.273077,0.175000,0.102317
790.306495,-0.200000,0.061237
790.339913,0.225000,0.143069
790.373330,0.000000,0.061237
790.406747,-0.025000,0.054486
790.440164,0.250000,0.167705
790.473581,0.025000,0.081968
790.506997,0.025000,0.147373
790.540414,-0.025000,0.073951
790.573829,0.100000,0.035355
790.607245,0.100000,0.070711
790.640660,-0.025000,0.041458
790.674075,0.350000,0.125000
790.707490,-0.225000,0.064952
790.740904,0.150000,0.025000
790.774319,0.200000,0.070711
790.807733,0.075000,0.155624
790.841146,0.175000,0.073951
790.874560,-0.175000,0.064952
790.907973,0.125000,0.073951
790.941385,0.225000,0.129301
790.974798,0.275000,0.155624
791.008210,0.125000,0.041458
791.041622,0.225000,0.143069
791.075034,0.300000,0.106066
791.108445,-0.100000,0.035355
791.141856,0.000000,0.061237
791.175267,-0.025000,0.041458
791.208678,0.175000,0.096014
791.242088,-0.050000,0.025000
791.275498,0.275000,0.300780
791.308908,0.300000,0.136931
791.342317,0.200000,0.035355
791.375726,0.225000,0.096014
791.409135,0.025000,0.073951
791.442544,-0.300000,0.000000
791.475952,0.900000,0.314245
791.509360,1.850000,0.207666
791.542768,4.325000,0.892591
791.576176,10.100000,0.395285
791.609583,11.725000,1.029184
791.642990,9.100000,0.382426
791.676396,6.000000,0.694622
791.709803,0.975000,0.369755
791.743209,0.175000,0.134048
791.776615,-0.025000,0.073951
791.810020,-0.025000,0.041458
791.843425,0.400000,0.247487
791.876830,-0.475000,0.041458
791.910235,0.100000,0.035355
791.943640,-0.100000,0.035355
791.977044,0.275000,0.221853
792.010448,0.125000,0.227418
792.043851,0.075000,0.073951
792.077254,-0.125000,0.081968
792.110658,0.325000,0.143069
792.144060,0.050000,0.103078
792.177463,0.225000,0.221853
792.210865,0.050000,0.103078
792.244267,0.025000,0.113880
792.277668,0.025000,0.096014
792.311070,0.175000,0.155624
792.344471,0.150000,0.103078
792.377872,0.000000,0.050000
792.411272,0.150000,0.167705
792.444672,0.100000,0.061237
792.478072,0.200000,0.061237
792.511472,-0.025000,0.021651
792.544871,0.175000,0.188331
792.578271,-0.275000,0.041458
792.611669,-0.050000,0.055902
792.645068,0.150000,0.175000
792.678466,-0.325000,0.081968
792.711864,0.225000,0.113880
792.745262,-0.025000,0.021651
792.778659,0.150000,0.082916
792.812056,0.100000,0.093541
792.845453,0.150000,0.055902
792.878850,0.000000,0.035355
792.912246,0.075000,0.041458
792.945642,0.075000,0.134048
792.979038,0.075000,0.064952
793.012433,0.275000,0.064952
793.045829,0.350000,0.167705
793.079223,-0.200000,0.079057
793.112618,-0.225000,0.064952
793.146012,0.475000,0.178098
793.179406,-0.050000,0.219374
793.212800,-0.075000,0.054486
793.246194,0.050000,0.090139
793.279587,0.225000,0.064952
793.312980,0.425000,0.170935
793.346373,0.450000,0.227761
793.379765,2.300000,0.637377
793.413157,5.200000,0.590551
793.446549,9.150000,0.682367
793.479940,11.700000,0.070711
793.513332,10.400000,0.478278
793.546723,6.725000,0.486538
793.580113,1.300000,0.061237
793.613504,0.100000,0.154110
793.646894,0.150000,0.311247
793.680284,0.025000,0.054486
793.713673,0.200000,0.154110
793.747062,0.250000,0.182003
793.780451,0.050000,0.043301
793.813840,0.200000,0.070711
793.847228,0.050000,0.114564
793.880617,0.075000,0.155624
793.914004,0.000000,0.050000
793.947392,-0.150000,0.055902
793.980779,-0.125000,0.054486
794.014166,-0.075000,0.129301
794.047553,0.100000,0.061237
794.080940,0.225000,0.064952
794.114326,0.275000,0.143069
794.147712,0.325000,0.230149
794.181097,-0.000000,0.086603
794.214483,0.100000,0.035355
794.247868,0.350000,0.114564
794.281252,0.175000,0.155624
794.314637,0.025000,0.397453
794.348021,-0.050000,0.025000
794.381405,0.025000,0.064952
794.414788,0.300000,0.262202
794.448172,0.175000,0.108253
794.481555,0.075000,0.021651
794.514938,0.250000,0.134629
794.548320,-0.100000,0.176777
794.581702,0.075000,0.064952
794.615084,0.200000,0.070711
794.648466,0.500000,0.254951
794.681847,0.150000,0.043301
794.715228,0.625000,0.648436
794.748609,-0.200000,0.183712
794.781990,-0.900000,0.196850
794.815370,0.200000,0.111803
794.848750,0.025000,0.184983
794.882129,-0.050000,0.258602
794.915509,0.100000,0.158114
794.948888,-0.400000,0.086603
794.982267,0.475000,0.096014
795.015645,-0.125000,0.151554
795.049023,0.475000,0.194856
795.082401,0.025000,0.113880
795.115779,0.500000,0.467707
795.149156,0.125000,0.167239
795.182534,0.125000,0.108253
795.215910,0.375000,0.302851
795.249287,1.250000,0.303109
795.282663,3.925000,0.163459
795.316039,10.550000,1.375909
795.349415,17.175000,1.123263
795.382790,25.850000,1.336273
795.416165,14.366667,0.566054
795.449540,5.275000,0.970422
795.482915,1.200000,0.438748
795.516289,0.700000,0.506211
795.549663,0.200000,0.106066
795.583037,-0.175000,0.041458
795.616410,0.075000,0.041458
795.649783,-0.300000,0.061237
795.683156,0.350000,0.270416
795.716529,0.450000,0.256174
795.749901,-0.150000,0.055902
795.783273,0.000000,0.117260
795.816645,-0.225000,0.073951
795.850016,0.225000,0.108253
795.883387,0.150000,0.075000
795.916758,0.175000,0.096014
795.950129,0.100000,0.162019
795.983499,0.150000,0.082916
796.016869,0.275000,0.276981
796.050239,-0.475000,0.041458
796.083608,0.125000,0.021651
796.116977,0.025000,0.089268
796.150346,-0.475000,0.054486
796.183714,0.025000,0.054486
796.217083,0.150000,0.043301
796.250451,0.025000,0.124373
796.283818,0.175000,0.124373
796.317186,0.000000,0.061237
796.350553,0.325000,0.369755
796.383920,0.150000,0.347311
796.417286,0.175000,0.124373
796.450653,-0.075000,0.041458
796.484019,0.350000,0.303109
796.517384,0.325000,0.147373
796.550750,0.050000,0.043301
796.584115,0.250000,0.134629
796.617480,-0.050000,0.188746
796.650844,0.050000,0.103078
796.684209,-0.075000,0.041458
796.717573,-0.225000,0.113880
796.750936,0.175000,0.147373
796.784300,0.100000,0.127475
796.817663,-0.200000,0.035355
796.851026,0.175000,0.054486
796.884388,-0.300000,0.061237
796.917751,0.125000,0.113880
796.951113,0.100000,0.106066
796.984474,0.000000,0.079057
797.017836,0.200000,0.093541
797.051197,0.050000,0.134629
797.084558,-0.125000,0.064952
797.117918,0.500000,0.176777
797.151279,1.350000,0.350892
797.184639,6.525000,0.900260
797.217998,13.050000,0.779022
797.251358,29.700000,2.268535
797.284717,31.550000,2.208365
797.318076,16.475000,1.248186
797.351434,5.875000,0.482668
797.384793,1.525000,0.389511
797.418151,0.550000,0.270416
797.451508,0.450000,0.275000
797.484866,0.050000,0.025000
797.518223,0.175000,0.064952
797.551580,0.175000,0.213234
797.584936,-0.100000,0.070711
797.618292,-0.150000,0.103078
797.651648,0.675000,0.227418
797.685004,-0.075000,0.129301
797.718360,0.200000,0.035355
797.751715,0.175000,0.129301
797.785069,0.250000,0.090139
797.818424,0.000000,0.061237
797.851778,0.275000,0.178098
797.885132,-0.400000,0.079057
797.918486,0.250000,0.103078
797.951839,0.025000,0.064952
797.985192,-0.025000,0.021651
798.018545,0.025000,0.081968
798.051898,0.125000,0.021651
798.085250,0.100000,0.127475
798.118602,0.225000,0.147373
798.151954,-0.025000,0.216145
798.185305,0.025000,0.041458
798.218656,0.075000,0.064952
798.252007,0.350000,0.182003
798.285357,0.500000,0.061237
798.318708,0.250000,0.114564
798.352057,0.050000,0.108972
798.385407,0.250000,0.195256
798.418756,0.025000,0.119242
798.452106,0.125000,0.073951
798.485454,0.125000,0.290205
798.518803,0.325000,0.143069
798.552151,0.075000,0.041458
798.585499,0.175000,0.054486
798.618847,-0.125000,0.134048
798.652194,0.150000,0.108972
798.685541,0.325000,0.089268
798.718888,0.350000,0.251247
798.752234,-0.100000,0.079057
798.785580,0.250000,0.043301
798.818926,0.225000,0.235518
798.852272,-0.050000,0.055902
798.885617,0.000000,0.200000
798.918962,0.450000,0.152069
798.952307,0.200000,0.183712
798.985651,0.150000,0.103078
799.018996,0.450000,0.258602
799.052339,1.900000,0.200000
799.085683,8.550000,0.891978
799.119026,17.600000,1.107362
799.152369,35.150000,1.895554
799.185712,48.850000,2.260669
799.219054,25.025000,1.129920
799.252397,8.325000,0.619854
799.285738,2.225000,0.581351
799.319080,0.575000,0.194856
799.352421,0.375000,0.147373
799.385762,0.200000,0.117260
799.419103,0.300000,0.203101
799.452443,0.475000,0.129301
799.485783,0.275000,0.102317
799.519123,0.150000,0.175000
799.552463,0.000000,0.070711
799.585802,0.125000,0.129301
799.619141,-0.125000,0.054486
799.652480,-0.400000,0.035355
799.685818,0.075000,0.216145
799.719156,0.200000,0.086603
799.752494,0.250000,0.114564
799.785831,0.175000,0.041458
799.819169,0.075000,0.073951
799.852506,-0.050000,0.134629
799.885842,-0.150000,0.055902
799.919179,-0.075000,0.089268
799.952515,0.300000,0.150000
799.985850,0.625000,0.178098
800.019186,0.000000,0.127475
800.052521,0.150000,0.163936
800.085856,0.025000,0.064952
800.119191,0.150000,0.025000
800.152525,1.150000,0.394493
800.185859,0.400000,0.215058
800.219193,0.150000,0.114564
800.252526,0.125000,0.138632
800.285859,0.150000,0.075000
800.319192,0.100000,0.079057
800.352525,0.400000,0.269258
800.385857,0.050000,0.108972
800.419189,0.325000,0.163459
800.452521,0.200000,0.061237
800.485852,0.375000,0.073951
800.519183,-0.075000,0.178098
800.552514,0.125000,0.348882
800.585844,-0.250000,0.167705
800.619175,1.275000,0.685907
800.652505,0.650000,0.268095
800.685834,0.625000,0.255869
800.719164,0.525000,0.204252
800.752493,0.200000,0.111803
800.785821,0.425000,0.089268
800.819150,-0.050000,0.090139
800.852478,0.325000,0.096014
800.885806,0.300000,0.226385
800.919134,0.400000,0.183712
800.952461,2.675000,0.715345
800.985788,9.925000,0.874196
801.019115,31.866667,0.421802
801.052441,70.300000,3.252499
801.085767,107.975000,0.756121
801.119093,89.866667,1.219802
801.152419,34.875000,0.929634
801.185744,6.450000,0.650481
801.219069,0.750000,0.414578
801.252394,0.275000,0.096014
801.285718,0.275000,0.298695
801.319042,0.100000,0.145774
801.352366,0.250000,0.227761
801.385690,1.150000,0.566238
801.419013,-0.200000,0.254951
801.452336,-0.275000,0.296595
801.485658,-0.600000,0.209165
801.518981,0.150000,0.143614
801.552303,0.425000,0.276981
801.585625,0.225000,0.198037
801.618946,-0.150000,0.043301
801.652267,-0.450000,0.082916
801.685588,-0.050000,0.055902
801.718909,0.175000,0.041458
801.752229,0.250000,0.103078
801.785549,0.175000,0.163459
801.818869,0.375000,0.178098
801.852188,0.000000,0.070711
801.885507,0.300000,0.093541
801.918826,0.475000,0.096014
801.952145,-0.075000,0.073951
801.985463,-0.150000,0.160078
802.018781,0.300000,0.237171
802.052099,0.525000,0.320887
802.085416,-0.075000,0.041458
802.118733,0.325000,0.108253
802.152050,-0.025000,0.041458
802.185366,-0.050000,0.108972
802.218683,0.425000,0.163459
802.251999,0.025000,0.054486
802.285314,0.250000,0.371652
802.318630,0.225000,0.143069
802.351945,-0.125000,0.021651
802.385259,0.100000,0.187083
802.418574,0.625000,0.310996
802.451888,0.325000,0.129301
802.485202,0.075000,0.081968
802.518515,0.175000,0.235518
802.551829,0.075000,0.096014
802.585142,0.200000,0.000000
802.618454,0.625000,0.253414
802.651767,0.025000,0.054486
802.685079,-0.225000,0.267804
802.718391,0.800000,0.302076
802.751702,0.425000,0.198037
802.785013,0.125000,0.054486
802.818324,0.450000,0.055902
802.851635,0.700000,0.141421
802.884945,2.125000,0.451906
802.918255,13.950000,1.051487
802.951565,50.900000,0.671751
802.984874,106.975000,2.724513
803.018184,153.675000,1.643691
803.051492,99.350000,3.055016
803.084801,25.300000,0.523211
803.118109,3.700000,0.407738
803.151417,0.825000,0.174553
803.184725,0.625000,0.096014
803.218032,0.725000,0.292350
803.251339,0.250000,0.082916
803.284646,0.250000,0.160078
803.317953,0.475000,0.163459
803.351259,0.050000,0.143614
803.384565,-0.000000,0.093541
803.417870,0.100000,0.176777
803.451176,0.325000,0.064952
803.484481,0.550000,0.394493
803.517786,0.225000,0.113880
803.551090,0.250000,0.192029
803.584394,0.250000,0.279508
803.617698,-0.100000,0.079057
803.651002,0.500000,0.333542
803.684305,0.425000,0.306951
803.717608,-0.000000,0.291548
803.750910,-0.150000,0.055902
803.784213,0.100000,0.111803
803.817515,0.375000,0.143069
803.850817,-0.100000,0.209165
803.884118,1.000000,0.459619
803.917419,0.475000,0.073951
803.950720,0.275000,0.155624
803.984021,0.250000,0.025000
804.017321,0.550000,0.114564
804.050621,0.075000,0.138632
804.083921,0.025000,0.108253
804.117220,0.300000,0.247487
804.150519,0.275000,0.163459
804.183818,0.175000,0.108253
804.217117,0.000000,0.231840
804.250415,0.525000,0.119242
804.283713,0.400000,0.106066
804.317011,0.350000,0.207666
804.350308,0.800000,0.379144
804.383605,0.050000,0.055902
804.416902,0.825000,0.374792
804.450198,0.300000,0.050000
804.483494,0.275000,0.184983
804.516790,0.475000,0.102317
804.550086,0.700000,0.302076
804.583381,-0.075000,0.147373
804.616676,0.275000,0.108253
804.649971,0.650000,0.147902
804.683265,0.525000,0.207289
804.716559,0.050000,0.207666
804.749853,0.500000,0.145774
804.783146,0.725000,0.285865
804.816440,5.725000,0.770856
804.849732,21.750000,1.520896
804.883025,76.566667,2.758019
804.916317,143.366667,1.032190
804.949609,198.575000,4.193503
804.982901,118.975000,3.025387
805.016192,27.166667,0.391046
805.049484,6.750000,0.673146
805.082774,0.000000,0.266927
805.116065,0.700000,0.237171
805.149355,0.000000,0.061237
805.182645,0.075000,0.108253
805.215935,0.575000,0.442118
805.249224,0.125000,0.064952
805.282513,0.175000,0.073951
805.315802,0.300000,0.154110
805.349090,-0.100000,0.093541
805.382378,0.100000,0.050000
805.415666,0.125000,0.064952
805.448954,0.300000,0.234521
805.482241,-0.100000,0.061237
805.515528,0.075000,0.021651
805.548815,0.325000,0.041458
805.582101,0.625000,0.300780
805.615387,0.150000,0.055902
805.648673,0.325000,0.129301
805.681958,0.100000,0.122474
805.715243,0.375000,0.178098
805.748528,0.400000,0.262202
805.781813,-0.250000,0.114564
805.815097,0.225000,0.143069
805.848381,-0.050000,0.317214
805.881665,-0.050000,0.090139
805.914948,0.125000,0.096014
805.948231,0.325000,0.096014
805.981514,0.675000,0.345281
806.014796,0.100000,0.122474
806.048079,0.675000,0.337963
806.081360,0.150000,0.043301
806.114642,0.450000,0.075000
806.147923,0.375000,0.198037
806.181204,0.375000,0.298695
806.214485,-0.250000,0.103078
806.247765,-0.000000,0.093541
806.281046,0.575000,0.310996
806.314325,0.225000,0.248433
806.347605,0.750000,0.396074
806.380884,-0.300000,0.050000
806.414163,0.125000,0.054486
806.447441,0.125000,0.096014
806.480720,0.325000,0.184983
806.513998,0.750000,0.178536
806.547275,0.825000,0.255869
806.580553,0.500000,0.329773
806.613830,0.500000,0.231840
806.647107,0.525000,0.129301
806.680383,0.650000,0.207666
806.713659,1.475000,0.366359
806.746935,4.300000,0.643234
806.780211,28.966667,1.907988
806.813486,106.766667,1.064386
806.846761,233.575000,3.945943
806.880036,333.300000,3.454888
806.913310,290.225000,8.148035
806.946584,76.400000,2.381439
806.979858,12.275000,0.918814
807.013132,2.400000,0.419821
807.046405,1.050000,0.292617
807.079678,0.275000,0.073951
807.112951,0.825000,0.316968
807.146223,0.125000,0.283670
807.179495,0.000000,0.183712
807.212767,-0.475000,0.096014
807.246038,0.075000,0.021651
807.279309,0.450000,0.294746
807.312580,0.350000,0.160078
807.345850,0.050000,0.114564
807.379121,-0.150000,0.082916
807.412390,0.725000,0.314990
807.445660,0.425000,0.147373
807.478929,0.150000,0.114564
807.512198,0.500000,0.242384
807.545467,-0.200000,0.079057
807.578735,0.225000,0.167239
807.612004,-0.650000,0.178536
807.645271,0.200000,0.106066
807.678539,0.300000,0.257391
807.711806,-0.025000,0.054486
807.745073,-0.200000,0.111803
807.778340,0.000000,0.070711
807.811606,0.750000,0.368273
807.844872,1.400000,0.388909
807.878138,0.700000,0.273861
807.911403,0.950000,0.636887
807.944668,0.800000,0.252488
807.977933,0.100000,0.093541
808.011197,-0.075000,0.089268
808.044462,0.525000,0.129301
808.077725,0.000000,0.061237
808.110989,0.400000,0.070711
808.144252,1.100000,0.385681
808.177515,0.400000,0.035355
808.210778,0.350000,0.207666
808.244040,0.150000,0.219374
808.277302,-0.400000,0.061237
808.310564,0.500000,0.206155
808.343826,0.475000,0.134048
808.377087,0.375000,0.224653
808.410348,0.500000,0.203101
808.443608,0.600000,0.136931
808.476869,0.025000,0.102317
808.510129,0.525000,0.207289
808.543388,1.350000,0.752080
808.576648,0.925000,0.339807
808.609907,0.775000,0.232849
808.643165,0.975000,0.089268
808.676424,2.525000,0.359470
808.709682,11.500000,0.735697
808.742940,83.675000,1.287136
808.776197,270.950000,3.300095
808.809455,460.950000,8.647290
808.842712,503.275000,3.856225
808.875968,267.650000,5.165450
808.909225,45.200000,1.580743
808.942481,9.825000,1.237121
808.975736,1.700000,0.575543
809.008992,0.750000,0.082916
809.042247,0.725000,0.352447
809.075502,0.225000,0.188331
809.108756,-0.450000,0.301040
809.142011,0.175000,0.073951
809.175265,0.125000,0.081968
809.208518,0.875000,0.255869
809.241772,0.125000,0.258300
809.275025,0.300000,0.061237
809.308277,0.150000,0.114564
809.341530,0.375000,0.151554
809.374782,0.400000,0.136931
809.408034,0.375000,0.124373
809.441285,-0.475000,0.073951
809.474536,-0.550000,0.125000
809.507787,0.075000,0.167239
809.541038,0.275000,0.073951
809.574288,0.125000,0.143069
809.607538,0.050000,0.075000
809.640788,0.475000,0.147373
809.674037,0.400000,0.289396
809.707286,0.075000,0.119242
809.740535,0.550000,0.090139
809.773783,0.800000,0.348210
809.807032,0.500000,0.351781
809.840279,0.525000,0.566100
809.873527,0.400000,0.280624
809.906774,0.525000,0.274716
809.940021,0.125000,0.204252
809.973268,0.575000,0.216145
810.006514,0.250000,0.350892
810.039760,0.800000,0.437321
810.073006,0.450000,0.125000
810.106251,0.325000,0.276981
810.139497,0.525000,0.201168
810.172741,0.125000,0.138632
810.205986,0.550000,0.225000
810.239230,0.075000,0.207289
810.272474,0.975000,0.201168
810.305718,0.925000,0.322829
810.338961,1.200000,0.445814
810.372204,0.700000,0.176777
810.405447,-0.775000,0.263095
810.438689,0.675000,0.167239
810.471931,0.200000,0.237171
810.505173,0.450000,0.160078
810.538414,1.200000,0.285044
810.571656,1.025000,0.462838
810.604897,1.625000,0.198037
810.638137,3.575000,0.588828
810.671377,22.325000,0.592004
810.704617,168.675000,5.263480
810.737857,543.725000,10.494128
810.771096,842.575000,6.974272
810.804335,910.400000,4.274342
810.837574,424.650000,5.903865
810.870813,63.666667,3.488075
810.904051,11.825000,0.842893
810.937288,3.400000,1.047020
810.970526,0.725000,0.322829
811.003763,0.375000,0.314990
811.037000,0.025000,0.155624
811.070237,0.450000,0.251247
811.103473,0.050000,0.134629
811.136709,-0.075000,0.163459
811.169945,0.050000,0.294746
811.203180,0.075000,0.134048
811.236415,0.475000,0.326678
811.269650,-0.175000,0.159589
811.302884,-0.025000,0.240767
811.336119,-0.100000,0.169558
811.369352,0.200000,0.262202
811.402586,0.425000,0.439282
811.435819,0.375000,0.564994
811.469052,1.425000,0.502960
811.502285,-0.300000,1.110743
811.535517,-0.525000,0.950247
811.568749,0.425000,0.768420
811.601981,0.175000,0.240767
811.635212,-0.275000,0.184983
811.668443,0.150000,0.103078
811.701674,1.250000,0.467039
811.734905,0.675000,0.328586
811.768135,0.425000,0.073951
811.801365,1.100000,0.483477
811.834594,1.425000,0.320887
811.867824,-0.450000,0.143614
811.901053,0.375000,0.265460
811.934281,-0.525000,0.041458
811.967510,0.150000,0.129904
812.000738,0.025000,0.054486
812.033965,-0.075000,0.119242
812.067193,-0.425000,0.119242
812.100420,-0.125000,0.064952
812.133647,0.025000,0.143069
812.166873,-1.075000,0.129301
812.200099,0.275000,0.184983
812.233325,-0.050000,0.075000
812.266551,0.250000,0.391312
812.299776,0.000000,0.061237
812.333001,0.800000,0.196850
812.366226,0.125000,0.119242
812.399450,0.125000,0.089268
812.432674,0.625000,0.272431
812.465898,-0.550000,0.114564
812.499121,0.375000,0.178098
812.532345,0.375000,0.296595
812.565567,0.450000,0.152069
812.598790,0.925000,0.343466
812.632012,5.325000,0.502960
812.665234,42.500000,1.079931
812.698456,180.300000,3.291846
812.731677,298.950000,10.130492
812.764898,304.550000,2.850987
812.798119,181.375000,5.184035
812.831339,26.425000,1.022482
812.864559,4.900000,0.609303
812.897779,2.125000,0.842151
812.930998,0.175000,0.081968
812.964217,0.550000,0.294746
812.997436,0.675000,0.290205
813.030655,0.075000,0.041458
813.063873,0.300000,0.111803
813.097091,0.000000,0.035355
813.130308,-0.475000,0.147373
813.163526,0.025000,0.184983
813.196743,-0.050000,0.178536
813.229959,0.000000,0.035355
813.263176,0.050000,0.108972
813.296392,-0.225000,0.054486
813.329607,-0.200000,0.050000
813.362823,-0.025000,0.113880
813.396038,0.025000,0.081968
813.429253,0.100000,0.106066
813.462467,-0.150000,0.090139
813.495682,-0.125000,0.096014
813.528895,-0.175000,0.129301
813.562109,-0.125000,0.054486
813.595322,0.225000,0.167239
813.628535,-0.025000,0.041458
813.661748,-0.025000,0.096014
813.694960,-0.025000,0.134048
813.728172,-0.100000,0.061237
813.761384,-0.125000,0.108253
813.794596,-0.375000,0.188331
813.827807,-0.275000,0.021651
813.861017,-0.100000,0.070711
813.894228,0.075000,0.134048
813.927438,0.575000,0.174553
813.960648,0.400000,0.206155
813.993858,-0.050000,0.043301
814.027067,0.400000,0.217945
814.060276,0.525000,0.520066
814.093485,-0.250000,0.055902
814.126693,-0.175000,0.041458
814.159901,-0.375000,0.041458
814.193109,-0.625000,0.064952
814.226316,0.325000,0.143069
814.259523,0.175000,0.064952
814.292730,0.000000,0.061237
814.325936,0.275000,0.113880
814.359143,0.100000,0.122474
814.392348,-0.100000,0.035355
814.425554,0.075000,0.124373
814.458759,0.275000,0.210283
814.491964,-0.275000,0.096014
814.525169,0.125000,0.224653
814.558373,0.050000,0.129904
814.591577,-0.075000,0.170935
814.624781,0.100000,0.070711
814.657984,0.675000,0.298695
