#{
#    "background_file": "Backgrounds\\\\bg_787.999nm_16bin_197st_244en_10.0s_110g_4x_1_seq.txt",
#    "ccd_image_settings": [
#        1,
#        16,
#        1,
#        1600,
#        197,
#        244
#    ],
#    "ccd_temperature": "-88",
#    "cdRatios": {
#        "mean": 0.926839932242912,
#        "std": 0.0065282083718216635
#    },
#    "center_lambda": 788.0,
#    "comments": "",
#    "dark_region": 0.29532539654379536,
#    "date": "11/17/19 14:16:35PM",
#    "eff_field": 1.5,
#    "exposure": 10.0,
#    "fel_lambda": "15.0",
#    "fel_pol": "H",
#    "fel_pulses": 40,
#    "fel_pyro_cal": "0.017",
#    "fel_reprate": "1.07",
#    "fel_transmission": "1.0",
#    "fel_transmission_fits": {
#        "A": 1.0,
#        "C": 0.0,
#        "Mu": 0.0
#    },
#    "fieldInt": {
#        "mean": 9298.21115909091,
#        "std": 381.8945593117744
#    },
#    "fieldStrength": {
#        "mean": 44.233636363636364,
#        "std": 0.9035396566357314
#    },
#    "fpTime": {
#        "mean": 1.1523742686061595,
#        "std": 0.09089177972089577
#    },
#    "gain": 110,
#    "grating": 3,
#    "images_in_sequence": [
#        "hsg_SpotD_crystal16_a45_HAna109.txt",
#        "hsg_SpotD_crystal16_a45_HAna110.txt",
#        "hsg_SpotD_crystal16_a45_HAna111.txt",
#        "hsg_SpotD_crystal16_a45_HAna112.txt"
#    ],
#    "nir_lambda": "820.9918",
#    "nir_pola": "45",
#    "nir_polg": "0",
#    "nir_power": "100.0",
#    "pulseEnergies": {
#        "mean": 2.0127727272727274,
#        "std": 0.09540592476764936
#    },
#    "pyroVoltage": {
#        "mean": 0.12780496982181516,
#        "std": 0.006902522997097073
#    },
#    "rotatorAngle": 225.0,
#    "sample_Temp": "58",
#    "sample_name": "L001218.C3",
#    "series": "SpotD_16_45",
#    "slits": "60",
#    "spec_step": "",
#    "window_trans": 0.92,
#    "y_max": 2,
#    "y_min": 1
#}
#
#
#
#
#
#
#
#
#
#
#
#
#
#
#
#
#
#
#
#
#
#
#
#
#
#
Wavelength,Signal,error
nm,arb. u.,arb.u.
Wavelength,SpotD_16_45,error
761.200217,-0.050000,0.043301
761.233859,-0.075000,0.021651
761.267500,0.175000,0.124373
761.301141,0.025000,0.096014
761.334781,0.025000,0.073951
761.368422,-0.450000,0.075000
761.402062,0.250000,0.090139
761.435702,0.150000,0.336341
761.469342,-0.100000,0.127475
761.502981,0.125000,0.041458
761.536620,-0.025000,0.089268
761.570259,-0.250000,0.025000
761.603898,-0.175000,0.073951
761.637537,-0.250000,0.082916
761.671175,-0.150000,0.134629
761.704813,0.025000,0.207289
761.738451,0.300000,0.079057
761.772088,-0.125000,0.073951
761.805726,-0.175000,0.138632
761.839363,-0.075000,0.073951
761.873000,-0.250000,0.163936
761.906636,0.125000,0.230149
761.940273,0.175000,0.113880
761.973909,-0.075000,0.073951
762.007545,0.150000,0.025000
762.041180,-0.250000,0.114564
762.074816,0.450000,0.430842
762.108451,0.250000,0.188746
762.142086,0.275000,0.064952
762.175720,0.225000,0.258300
762.209355,0.050000,0.195256
762.242989,0.100000,0.070711
762.276623,0.325000,0.263095
762.310257,-0.075000,0.021651
762.343890,-0.375000,0.064952
762.377524,0.000000,0.061237
762.411157,0.075000,0.021651
762.444789,0.300000,0.183712
762.478422,0.500000,0.169558
762.512054,0.125000,0.081968
762.545686,-0.050000,0.075000
762.579318,0.275000,0.064952
762.612950,0.175000,0.054486
762.646581,-0.125000,0.119242
762.680212,0.325000,0.240767
762.713843,0.250000,0.143614
762.747474,0.350000,0.188746
762.781104,-0.175000,0.113880
762.814734,-0.525000,0.102317
762.848364,0.075000,0.210283
762.881994,0.125000,0.129301
762.915623,0.075000,0.073951
762.949252,-0.100000,0.061237
762.982881,0.125000,0.089268
763.016510,0.200000,0.117260
763.050139,-0.150000,0.082916
763.083767,0.025000,0.096014
763.117395,0.100000,0.093541
763.151023,0.200000,0.070711
763.184650,0.500000,0.203101
763.218277,-0.200000,0.093541
763.251904,0.025000,0.113880
763.285531,0.075000,0.073951
763.319158,0.075000,0.064952
763.352784,0.050000,0.143614
763.386410,-0.200000,0.111803
763.420036,-0.600000,0.093541
763.453661,0.800000,0.304138
763.487287,0.100000,0.215058
763.520912,-1.050000,0.090139
763.554537,-0.175000,0.041458
763.588161,-0.175000,0.124373
763.621786,-0.150000,0.055902
763.655410,0.025000,0.054486
763.689034,-0.275000,0.089268
763.722657,0.275000,0.089268
763.756281,0.225000,0.089268
763.789904,0.200000,0.203101
763.823527,0.050000,0.075000
763.857150,-0.025000,0.184983
763.890772,0.250000,0.265754
763.924394,0.300000,0.106066
763.958016,0.150000,0.134629
763.991638,0.225000,0.081968
764.025260,0.200000,0.136931
764.058881,0.025000,0.081968
764.092502,-0.025000,0.330483
764.126123,0.275000,0.054486
764.159743,0.000000,0.035355
764.193363,0.400000,0.154110
764.226983,0.225000,0.174553
764.260603,0.325000,0.064952
764.294223,-0.100000,0.050000
764.327842,0.300000,0.217945
764.361461,0.500000,0.136931
764.395080,0.000000,0.079057
764.428699,0.350000,0.535607
764.462317,0.200000,0.093541
764.495935,-0.200000,0.035355
764.529553,0.050000,0.167705
764.563170,0.150000,0.103078
764.596788,0.450000,0.129904
764.630405,-0.125000,0.064952
764.664022,-0.150000,0.090139
764.697638,0.075000,0.041458
764.731255,0.475000,0.155624
764.764871,0.100000,0.035355
764.798487,-0.075000,0.129301
764.832103,-0.025000,0.155624
764.865718,0.150000,0.103078
764.899333,0.075000,0.163459
764.932948,-0.225000,0.041458
764.966563,-0.050000,0.129904
765.000177,0.075000,0.041458
765.033792,0.225000,0.198037
765.067406,0.225000,0.102317
765.101019,0.250000,0.277263
765.134633,-0.250000,0.090139
765.168246,0.225000,0.230149
765.201859,0.175000,0.151554
765.235472,0.650000,0.182003
765.269084,0.225000,0.089268
765.302697,-0.150000,0.025000
765.336309,0.400000,0.318198
765.369920,0.425000,0.198037
765.403532,0.050000,0.182003
765.437143,-0.250000,0.055902
765.470754,0.250000,0.163936
765.504365,-0.150000,0.090139
765.537976,0.250000,0.143614
765.571586,-0.100000,0.070711
765.605196,0.350000,0.256174
765.638806,0.150000,0.075000
765.672416,0.250000,0.082916
765.706025,0.125000,0.096014
765.739634,0.050000,0.143614
765.773243,0.100000,0.050000
765.806851,0.175000,0.243349
765.840460,0.000000,0.061237
765.874068,0.250000,0.219374
765.907676,-0.225000,0.073951
765.941284,0.100000,0.093541
765.974891,0.400000,0.346410
766.008498,0.200000,0.271570
766.042105,-0.100000,0.061237
766.075712,-0.100000,0.079057
766.109318,-0.325000,0.113880
766.142924,-0.200000,0.070711
766.176530,-0.375000,0.198037
766.210136,0.050000,0.108972
766.243741,0.150000,0.114564
766.277347,-0.100000,0.079057
766.310951,0.050000,0.103078
766.344556,0.150000,0.055902
766.378161,0.225000,0.124373
766.411765,0.200000,0.136931
766.445369,0.125000,0.155624
766.478973,-0.125000,0.119242
766.512576,-0.075000,0.081968
766.546179,-0.050000,0.103078
766.579782,0.025000,0.073951
766.613385,0.025000,0.041458
766.646988,-0.425000,0.041458
766.680590,0.050000,0.082916
766.714192,0.100000,0.100000
766.747794,-0.050000,0.055902
766.781395,0.225000,0.073951
766.814996,-0.375000,0.089268
766.848597,0.475000,0.267804
766.882198,0.100000,0.035355
766.915799,0.200000,0.093541
766.949399,0.150000,0.075000
766.982999,0.375000,0.300780
767.016599,-0.125000,0.089268
767.050198,0.075000,0.124373
767.083798,0.050000,0.025000
767.117397,0.050000,0.114564
767.150996,0.250000,0.143614
767.184594,-0.425000,0.054486
767.218193,-0.050000,0.108972
767.251791,-0.125000,0.089268
767.285389,-0.300000,0.035355
767.318986,0.425000,0.403694
767.352583,0.575000,0.326678
767.386181,-0.025000,0.041458
767.419777,0.050000,0.188746
767.453374,0.400000,0.203101
767.486970,-0.075000,0.113880
767.520567,0.675000,0.216145
767.554162,-0.125000,0.041458
767.587758,0.025000,0.054486
767.621353,0.175000,0.054486
767.654949,0.125000,0.230149
767.688543,0.025000,0.129301
767.722138,0.075000,0.064952
767.755732,0.250000,0.075000
767.789327,0.075000,0.073951
767.822921,-0.300000,0.035355
767.856514,-0.275000,0.102317
767.890108,0.175000,0.041458
767.923701,0.075000,0.155624
767.957294,0.125000,0.096014
767.990886,0.075000,0.054486
768.024479,0.175000,0.129301
768.058071,0.025000,0.096014
768.091663,-0.225000,0.054486
768.125255,0.025000,0.089268
768.158846,0.125000,0.113880
768.192437,-0.075000,0.230149
768.226028,-0.100000,0.127475
768.259619,0.150000,0.075000
768.293209,0.075000,0.151554
768.326799,0.200000,0.183712
768.360389,0.450000,0.336341
768.393979,0.575000,0.359470
768.427568,0.250000,0.167705
768.461158,0.125000,0.263095
768.494747,-0.075000,0.073951
768.528335,-0.075000,0.143069
768.561924,0.400000,0.117260
768.595512,0.525000,0.232849
768.629100,0.250000,0.103078
768.662688,0.125000,0.138632
768.696275,-0.100000,0.061237
768.729862,-0.050000,0.103078
768.763449,-0.075000,0.147373
768.797036,-0.200000,0.061237
768.830623,0.525000,0.290205
768.864209,0.450000,0.279508
768.897795,0.150000,0.163936
768.931381,0.475000,0.440703
768.964966,-0.325000,0.064952
768.998551,0.325000,0.073951
769.032136,0.000000,0.122474
769.065721,-0.025000,0.191621
769.099305,-0.075000,0.073951
769.132890,-0.075000,0.081968
769.166474,0.100000,0.061237
769.200057,-0.225000,0.073951
769.233641,-0.100000,0.122474
769.267224,0.025000,0.113880
769.300807,-0.225000,0.201168
769.334390,-0.300000,0.079057
769.367972,0.075000,0.054486
769.401555,-0.275000,0.081968
769.435137,-0.350000,0.025000
769.468718,0.000000,0.061237
769.502300,0.350000,0.251247
769.535881,0.250000,0.219374
769.569462,-0.225000,0.184983
769.603043,-0.025000,0.163459
769.636623,0.350000,0.225000
769.670204,-0.100000,0.000000
769.703784,0.125000,0.174553
769.737364,0.675000,0.314990
769.770943,0.025000,0.021651
769.804522,-0.175000,0.054486
769.838101,-0.175000,0.081968
769.871680,-0.175000,0.054486
769.905259,-0.275000,0.064952
769.938837,0.475000,0.332368
769.972415,-0.075000,0.073951
770.005993,0.675000,0.129301
770.039570,0.075000,0.054486
770.073147,0.100000,0.035355
770.106724,-0.025000,0.155624
770.140301,0.300000,0.079057
770.173878,0.050000,0.163936
770.207454,-0.150000,0.103078
770.241030,-0.025000,0.041458
770.274606,0.250000,0.043301
770.308181,0.025000,0.064952
770.341757,0.125000,0.054486
770.375332,0.875000,0.041458
770.408906,-0.075000,0.073951
770.442481,-0.250000,0.043301
770.476055,-0.225000,0.073951
770.509629,0.150000,0.025000
770.543203,0.125000,0.089268
770.576776,0.425000,0.224653
770.610350,0.775000,0.336108
770.643923,0.100000,0.061237
770.677495,0.100000,0.050000
770.711068,0.100000,0.061237
770.744640,-0.150000,0.082916
770.778212,0.600000,0.418330
770.811784,0.150000,0.261008
770.845356,0.325000,0.081968
770.878927,0.250000,0.108972
770.912498,0.475000,0.129301
770.946069,-0.025000,0.096014
770.979639,-0.125000,0.041458
771.013209,0.150000,0.025000
771.046779,-0.475000,0.073951
771.080349,-0.025000,0.102317
771.113919,0.075000,0.113880
771.147488,-0.025000,0.134048
771.181057,-0.050000,0.090139
771.214626,-0.050000,0.055902
771.248194,-0.100000,0.035355
771.281762,0.050000,0.143614
771.315330,0.250000,0.246221
771.348898,0.550000,0.152069
771.382465,-0.175000,0.081968
771.416033,0.150000,0.275000
771.449600,-0.025000,0.073951
771.483166,-0.025000,0.155624
771.516733,0.125000,0.167239
771.550299,-0.075000,0.054486
771.583865,-0.075000,0.041458
771.617431,0.250000,0.160078
771.650996,0.300000,0.127475
771.684562,-0.050000,0.043301
771.718127,0.275000,0.207289
771.751691,0.075000,0.073951
771.785256,-0.125000,0.089268
771.818820,-0.200000,0.093541
771.852384,0.275000,0.155624
771.885948,0.075000,0.163459
771.919511,-0.075000,0.054486
771.953074,0.175000,0.054486
771.986637,0.200000,0.050000
772.020200,0.050000,0.090139
772.053762,-0.025000,0.021651
772.087325,-0.025000,0.041458
772.120887,-0.275000,0.073951
772.154448,0.225000,0.096014
772.188010,0.050000,0.075000
772.221571,-0.000000,0.203101
772.255132,0.350000,0.279508
772.288692,0.025000,0.151554
772.322253,0.025000,0.073951
772.355813,-0.200000,0.127475
772.389373,-0.375000,0.089268
772.422933,-0.125000,0.119242
772.456492,0.275000,0.134048
772.490051,0.150000,0.055902
772.523610,0.125000,0.089268
772.557169,0.050000,0.082916
772.590727,-0.100000,0.086603
772.624285,0.050000,0.055902
772.657843,-0.050000,0.075000
772.691401,-0.350000,0.055902
772.724958,-0.025000,0.021651
772.758515,0.250000,0.082916
772.792072,0.225000,0.124373
772.825629,-0.050000,0.043301
772.859185,0.100000,0.127475
772.892741,-0.250000,0.055902
772.926297,0.000000,0.111803
772.959853,-0.025000,0.054486
772.993408,-0.600000,0.086603
773.026963,0.050000,0.125000
773.060518,-0.150000,0.147902
773.094073,-0.100000,0.061237
773.127627,0.075000,0.064952
773.161181,0.325000,0.129301
773.194735,0.225000,0.181573
773.228289,-0.125000,0.089268
773.261842,0.075000,0.054486
773.295395,0.375000,0.248433
773.328948,0.450000,0.143614
773.362500,0.075000,0.041458
773.396053,-0.125000,0.096014
773.429605,-0.050000,0.075000
773.463157,0.350000,0.075000
773.496708,0.325000,0.073951
773.530260,-0.250000,0.082916
773.563811,-0.250000,0.090139
773.597361,0.050000,0.134629
773.630912,0.025000,0.054486
773.664462,0.325000,0.113880
773.698012,-0.025000,0.064952
773.731562,-0.025000,0.096014
773.765111,-0.050000,0.082916
773.798661,0.250000,0.309233
773.832210,-0.025000,0.113880
773.865758,0.475000,0.219018
773.899307,0.000000,0.111803
773.932855,0.075000,0.129301
773.966403,-0.225000,0.054486
773.999951,0.125000,0.181573
774.033498,0.200000,0.206155
774.067046,0.150000,0.043301
774.100593,0.150000,0.025000
774.134139,0.550000,0.167705
774.167686,0.100000,0.117260
774.201232,0.100000,0.061237
774.234778,0.425000,0.201168
774.268324,0.150000,0.075000
774.301869,0.025000,0.102317
774.335414,-0.150000,0.129904
774.368959,0.150000,0.075000
774.402504,-0.050000,0.090139
774.436048,-0.275000,0.064952
774.469592,0.200000,0.070711
774.503136,0.100000,0.136931
774.536680,0.200000,0.209165
774.570223,0.225000,0.159589
774.603766,0.300000,0.093541
774.637309,0.250000,0.075000
774.670852,0.025000,0.129301
774.704394,0.025000,0.129301
774.737936,-0.125000,0.041458
774.771478,-0.000000,0.106066
774.805020,0.025000,0.129301
774.838561,0.150000,0.219374
774.872102,0.475000,0.143069
774.905643,-0.025000,0.021651
774.939183,0.400000,0.231840
774.972724,-0.100000,0.154110
775.006264,0.450000,0.516599
775.039804,0.425000,0.129301
775.073343,-0.050000,0.216506
775.106882,-0.075000,0.167239
775.140421,-0.000000,0.106066
775.173960,-0.250000,0.090139
775.207499,-0.275000,0.054486
775.241037,0.150000,0.125000
775.274575,0.175000,0.096014
775.308113,-0.050000,0.090139
775.341650,0.075000,0.021651
775.375187,-0.025000,0.041458
775.408724,-0.100000,0.154110
775.442261,-0.250000,0.075000
775.475798,-0.025000,0.041458
775.509334,0.200000,0.145774
775.542870,-0.100000,0.061237
775.576405,0.050000,0.277263
775.609941,0.250000,0.160078
775.643476,0.025000,0.073951
775.677011,-0.350000,0.055902
775.710546,0.225000,0.073951
775.744080,0.325000,0.174553
775.777614,0.250000,0.178536
775.811148,-0.025000,0.064952
775.844682,-0.200000,0.035355
775.878215,0.075000,0.213234
775.911748,0.325000,0.143069
775.945281,0.275000,0.041458
775.978814,-0.000000,0.086603
776.012346,0.025000,0.155624
776.045878,-0.075000,0.108253
776.079410,0.100000,0.000000
776.112941,0.175000,0.021651
776.146473,-0.150000,0.134629
776.180004,0.275000,0.167239
776.213535,0.150000,0.055902
776.247065,0.200000,0.050000
776.280595,0.000000,0.111803
776.314125,0.050000,0.043301
776.347655,0.100000,0.117260
776.381185,-0.250000,0.082916
776.414714,0.275000,0.124373
776.448243,0.150000,0.055902
776.481772,0.275000,0.412879
776.515300,0.050000,0.055902
776.548828,0.075000,0.064952
776.582356,-0.250000,0.147902
776.615884,0.200000,0.162019
776.649411,0.100000,0.061237
776.682938,0.325000,0.207289
776.716465,-0.100000,0.061237
776.749992,0.125000,0.174553
776.783518,0.525000,0.314990
776.817044,0.175000,0.064952
776.850570,0.075000,0.054486
776.884096,0.450000,0.201556
776.917621,-0.250000,0.055902
776.951146,-0.050000,0.090139
776.984671,-0.450000,0.090139
777.018196,-0.250000,0.055902
777.051720,0.050000,0.103078
777.085244,0.100000,0.035355
777.118768,-0.325000,0.096014
777.152292,0.025000,0.089268
777.185815,0.000000,0.070711
777.219338,-0.025000,0.073951
777.252861,0.525000,0.483962
777.286383,0.150000,0.277263
777.319905,0.000000,0.061237
777.353427,0.250000,0.201556
777.386949,0.175000,0.151554
777.420471,0.050000,0.055902
777.453992,0.025000,0.073951
777.487513,0.200000,0.061237
777.521033,0.000000,0.154110
777.554554,-0.200000,0.050000
777.588074,0.000000,0.086603
777.621594,0.100000,0.035355
777.655114,0.375000,0.129301
777.688633,0.225000,0.147373
777.722152,0.375000,0.240767
777.755671,0.275000,0.108253
777.789190,-0.100000,0.061237
777.822708,-0.000000,0.262202
777.856226,0.150000,0.082916
777.889744,0.300000,0.093541
777.923261,0.225000,0.096014
777.956779,-0.050000,0.129904
777.990296,0.075000,0.064952
778.023812,0.075000,0.041458
778.057329,-0.025000,0.073951
778.090845,0.250000,0.055902
778.124361,0.125000,0.081968
778.157877,0.050000,0.043301
778.191392,-0.075000,0.081968
778.224908,0.125000,0.081968
778.258423,-0.125000,0.041458
778.291937,-0.125000,0.054486
778.325452,0.075000,0.216145
778.358966,0.125000,0.224653
778.392480,-0.100000,0.061237
778.425993,0.025000,0.041458
778.459507,0.400000,0.154110
778.493020,0.150000,0.055902
778.526533,-0.050000,0.055902
778.560045,-0.325000,0.089268
778.593558,0.225000,0.178098
778.627070,0.150000,0.309233
778.660582,0.125000,0.129301
778.694093,0.500000,0.150000
778.727605,0.625000,0.518863
778.761116,0.275000,0.167239
778.794626,0.025000,0.073951
778.828137,0.000000,0.079057
778.861647,0.425000,0.281458
778.895157,0.100000,0.127475
778.928667,0.100000,0.061237
778.962176,0.125000,0.124373
778.995686,0.000000,0.093541
779.029194,0.125000,0.021651
779.062703,0.050000,0.043301
779.096212,0.175000,0.178098
779.129720,0.250000,0.129904
779.163228,-0.100000,0.061237
779.196735,0.050000,0.075000
779.230243,-0.700000,0.050000
779.263750,-0.075000,0.041458
779.297257,0.450000,0.201556
779.330763,0.025000,0.096014
779.364269,0.175000,0.119242
779.397776,0.250000,0.103078
779.431281,0.000000,0.061237
779.464787,0.050000,0.055902
779.498292,-0.025000,0.108253
779.531797,0.075000,0.064952
779.565302,0.025000,0.102317
779.598806,0.225000,0.113880
779.632311,0.125000,0.054486
779.665814,0.125000,0.124373
779.699318,0.100000,0.093541
779.732822,0.100000,0.061237
779.766325,0.100000,0.070711
779.799828,0.575000,0.527227
779.833330,0.200000,0.061237
779.866833,-0.250000,0.103078
779.900335,0.050000,0.025000
779.933837,0.050000,0.043301
779.967338,0.250000,0.182003
780.000840,0.025000,0.113880
780.034341,0.300000,0.169558
780.067841,0.075000,0.081968
780.101342,-0.000000,0.136931
780.134842,0.250000,0.108972
780.168342,-0.300000,0.050000
780.201842,0.100000,0.086603
780.235341,0.100000,0.035355
780.268841,-0.025000,0.054486
780.302340,0.300000,0.079057
780.335838,0.100000,0.035355
780.369337,0.175000,0.188331
780.402835,0.200000,0.070711
780.436333,0.100000,0.079057
780.469830,0.850000,0.175000
780.503328,0.450000,0.227761
780.536825,0.400000,0.229129
780.570322,0.250000,0.134629
780.603818,0.375000,0.159589
780.637315,0.050000,0.114564
780.670811,-0.075000,0.041458
780.704306,-0.125000,0.021651
780.737802,0.175000,0.089268
780.771297,-0.125000,0.041458
780.804792,0.000000,0.061237
780.838287,0.100000,0.145774
780.871781,-0.025000,0.041458
780.905276,-0.050000,0.114564
780.938770,-0.275000,0.054486
780.972263,-0.050000,0.043301
781.005757,0.200000,0.061237
781.039250,-0.025000,0.021651
781.072743,0.225000,0.174553
781.106235,-0.025000,0.041458
781.139728,0.000000,0.050000
781.173220,0.125000,0.041458
781.206712,0.150000,0.025000
781.240203,0.125000,0.041458
781.273694,0.100000,0.070711
781.307185,0.075000,0.064952
781.340676,0.150000,0.129904
781.374167,0.100000,0.079057
781.407657,0.250000,0.025000
781.441147,-0.050000,0.082916
781.474636,0.150000,0.108972
781.508126,0.000000,0.122474
781.541615,0.250000,0.160078
781.575104,0.075000,0.021651
781.608593,0.475000,0.310996
781.642081,0.325000,0.227418
781.675569,0.050000,0.192029
781.709057,0.200000,0.145774
781.742544,0.175000,0.041458
781.776032,-0.150000,0.055902
781.809519,0.150000,0.251247
781.843006,0.125000,0.089268
781.876492,0.050000,0.025000
781.909978,0.625000,0.341641
781.943464,-0.075000,0.041458
781.976950,0.250000,0.103078
782.010435,0.125000,0.041458
782.043921,0.125000,0.129301
782.077406,0.250000,0.192029
782.110890,0.500000,0.262202
782.144375,0.050000,0.134629
782.177859,0.475000,0.163459
782.211343,0.200000,0.215058
782.244826,0.550000,0.114564
782.278309,0.975000,0.352447
782.311792,0.675000,0.341641
782.345275,1.175000,0.174553
782.378758,1.050000,0.422049
782.412240,0.125000,0.204252
782.445722,0.425000,0.318934
782.479204,0.225000,0.108253
782.512685,-0.325000,0.155624
782.546166,0.300000,0.127475
782.579647,-0.150000,0.043301
782.613128,0.000000,0.061237
782.646608,-0.125000,0.054486
782.680088,0.075000,0.041458
782.713568,-0.250000,0.055902
782.747048,0.175000,0.064952
782.780527,-0.150000,0.043301
782.814006,-0.050000,0.055902
782.847485,-0.050000,0.075000
782.880963,-0.150000,0.055902
782.914442,-0.150000,0.043301
782.947920,-0.075000,0.096014
782.981397,-0.000000,0.086603
783.014875,0.525000,0.240767
783.048352,-0.050000,0.108972
783.081829,0.275000,0.064952
783.115306,0.125000,0.089268
783.148782,-0.025000,0.073951
783.182258,-0.225000,0.089268
783.215734,0.125000,0.054486
783.249209,0.125000,0.369755
783.282685,0.725000,0.512805
783.316160,0.050000,0.108972
783.349635,0.200000,0.093541
783.383109,-0.275000,0.124373
783.416583,-0.150000,0.075000
783.450057,0.075000,0.201168
783.483531,-0.025000,0.167239
783.517004,0.300000,0.050000
783.550477,0.050000,0.188746
783.583950,0.300000,0.035355
783.617423,0.175000,0.054486
783.650895,0.225000,0.021651
783.684367,-0.175000,0.021651
783.717839,-0.525000,0.064952
783.751311,-0.075000,0.113880
783.784782,0.025000,0.073951
783.818253,-0.100000,0.093541
783.851724,0.200000,0.061237
783.885194,0.050000,0.075000
783.918665,-0.125000,0.129301
783.952134,0.100000,0.061237
783.985604,0.050000,0.055902
784.019074,-0.025000,0.041458
784.052543,0.325000,0.129301
784.086012,0.475000,0.430661
784.119480,0.450000,0.288314
784.152948,0.125000,0.151554
784.186416,1.000000,0.229129
784.219884,1.550000,0.391312
784.253352,0.750000,0.258602
784.286819,-0.125000,0.096014
784.320286,0.150000,0.090139
784.353753,0.050000,0.055902
784.387219,0.775000,0.408312
784.420685,0.075000,0.041458
784.454151,-0.025000,0.124373
784.487617,-0.200000,0.050000
784.521082,0.150000,0.055902
784.554547,0.150000,0.043301
784.588012,0.050000,0.160078
784.621477,0.325000,0.151554
784.654941,0.300000,0.206155
784.688405,0.350000,0.090139
784.721869,0.425000,0.310996
784.755332,0.075000,0.134048
784.788795,0.275000,0.096014
784.822258,0.175000,0.188331
784.855721,0.075000,0.143069
784.889183,0.050000,0.075000
784.922646,-0.100000,0.061237
784.956107,0.475000,0.240767
784.989569,-0.150000,0.043301
785.023030,0.375000,0.472196
785.056491,0.100000,0.079057
785.089952,0.100000,0.145774
785.123413,-0.100000,0.106066
785.156873,-0.300000,0.061237
785.190333,0.200000,0.093541
785.223792,0.400000,0.154110
785.257252,0.150000,0.075000
785.290711,-0.050000,0.025000
785.324170,-0.150000,0.103078
785.357629,-0.100000,0.106066
785.391087,0.100000,0.061237
785.424545,-0.050000,0.055902
785.458003,0.050000,0.025000
785.491460,0.075000,0.064952
785.524918,0.225000,0.119242
785.558375,0.250000,0.147902
785.591831,0.175000,0.073951
785.625288,0.050000,0.025000
785.658744,0.250000,0.055902
785.692200,0.050000,0.090139
785.725655,0.100000,0.061237
785.759111,0.175000,0.064952
785.792566,-0.025000,0.134048
785.826021,0.050000,0.043301
785.859475,-0.075000,0.064952
785.892930,0.200000,0.136931
785.926384,0.550000,0.251247
785.959837,1.275000,0.362931
785.993291,1.625000,0.096014
786.026744,2.200000,0.350000
786.060197,1.950000,0.340037
786.093649,1.100000,0.425735
786.127102,-0.075000,0.054486
786.160554,0.100000,0.127475
786.194006,0.075000,0.124373
786.227457,0.100000,0.187083
786.260909,0.150000,0.055902
786.294360,-0.025000,0.054486
786.327810,0.000000,0.117260
786.361261,0.275000,0.113880
786.394711,0.100000,0.183712
786.428161,0.000000,0.035355
786.461611,0.275000,0.143069
786.495060,-0.125000,0.041458
786.528509,-0.050000,0.055902
786.561958,0.075000,0.073951
786.595407,0.250000,0.160078
786.628855,0.200000,0.093541
786.662303,-0.050000,0.192029
786.695751,0.025000,0.041458
786.729198,0.025000,0.089268
786.762645,-0.125000,0.064952
786.796092,-0.025000,0.064952
786.829539,0.025000,0.021651
786.862985,0.175000,0.272431
786.896431,0.200000,0.300000
786.929877,0.100000,0.035355
786.963323,0.050000,0.055902
786.996768,0.175000,0.041458
787.030213,-0.050000,0.225000
787.063658,-0.100000,0.035355
787.097102,0.175000,0.073951
787.130547,-0.200000,0.093541
787.163991,-0.100000,0.100000
787.197434,-0.175000,0.054486
787.230878,0.600000,0.176777
787.264321,0.200000,0.106066
787.297764,-0.050000,0.075000
787.331206,0.075000,0.073951
787.364648,0.100000,0.122474
787.398090,0.200000,0.035355
787.431532,0.175000,0.096014
787.464974,-0.025000,0.073951
787.498415,-0.450000,0.103078
787.531856,0.075000,0.089268
787.565296,-0.300000,0.061237
787.598737,0.600000,0.337268
787.632177,0.325000,0.054486
787.665617,0.050000,0.125000
787.699056,0.275000,0.178098
787.732496,-0.300000,0.176777
787.765935,0.250000,0.114564
787.799373,1.100000,0.209165
787.832812,1.700000,0.093541
787.866250,5.200000,0.860959
787.899688,4.075000,0.437857
787.933126,1.000000,0.244949
787.966563,0.900000,0.365718
788.000000,0.275000,0.064952
788.033437,0.025000,0.089268
788.066873,0.050000,0.090139
788.100310,0.075000,0.064952
788.133746,0.225000,0.089268
788.167181,0.125000,0.073951
788.200617,0.375000,0.298695
788.234052,0.050000,0.075000
788.267487,-0.100000,0.117260
788.300921,-0.100000,0.061237
788.334356,0.150000,0.108972
788.367790,0.250000,0.108972
788.401224,0.100000,0.035355
788.434657,-0.225000,0.073951
788.468090,0.025000,0.119242
788.501523,0.075000,0.041458
788.534956,0.050000,0.025000
788.568389,0.050000,0.090139
788.601821,-0.025000,0.143069
788.635253,0.100000,0.165831
788.668684,-0.025000,0.178098
788.702116,-0.025000,0.054486
788.735547,0.075000,0.054486
788.768977,0.125000,0.096014
788.802408,0.000000,0.035355
788.835838,0.125000,0.138632
788.869268,0.150000,0.075000
788.902698,0.350000,0.143614
788.936127,0.050000,0.075000
788.969556,0.000000,0.100000
789.002985,0.275000,0.041458
789.036414,0.225000,0.081968
789.069842,0.125000,0.204252
789.103270,0.150000,0.075000
789.136698,0.100000,0.106066
789.170125,-0.025000,0.021651
789.203552,0.100000,0.086603
789.236979,0.350000,0.043301
789.270406,0.275000,0.134048
789.303832,0.050000,0.090139
789.337258,0.225000,0.108253
789.370684,0.275000,0.272431
789.404110,-0.125000,0.073951
789.437535,0.225000,0.108253
789.470960,0.100000,0.187083
789.504385,-0.025000,0.054486
789.537809,0.200000,0.106066
789.571233,-0.075000,0.054486
789.604657,0.125000,0.041458
789.638081,0.375000,0.096014
789.671504,1.950000,0.707549
789.704927,4.025000,0.486538
789.738350,6.000000,0.910357
789.771772,3.600000,0.467707
789.805195,2.250000,0.414578
789.838617,0.900000,0.350000
789.872038,0.650000,0.326917
789.905460,-0.325000,0.230149
789.938881,0.175000,0.073951
789.972302,-0.150000,0.043301
790.005722,0.325000,0.170935
790.039143,-0.050000,0.025000
790.072563,0.250000,0.055902
790.105982,0.025000,0.021651
790.139402,0.175000,0.041458
790.172821,-0.225000,0.089268
790.206240,0.075000,0.054486
790.239658,0.325000,0.227418
790.273077,0.650000,0.125000
790.306495,-0.150000,0.075000
790.339913,0.225000,0.147373
790.373330,0.375000,0.178098
790.406747,0.050000,0.055902
790.440164,0.000000,0.079057
790.473581,-0.025000,0.064952
790.506997,-0.075000,0.198037
790.540414,-0.025000,0.064952
790.573829,0.350000,0.261008
790.607245,0.250000,0.125000
790.640660,0.075000,0.081968
790.674075,0.425000,0.155624
790.707490,0.225000,0.089268
790.740904,0.400000,0.183712
790.774319,0.125000,0.108253
790.807733,-0.050000,0.025000
790.841146,-0.025000,0.081968
790.874560,-0.275000,0.054486
790.907973,0.250000,0.160078
790.941385,0.275000,0.096014
790.974798,-0.025000,0.054486
791.008210,0.050000,0.075000
791.041622,0.000000,0.122474
791.075034,0.250000,0.082916
791.108445,0.050000,0.055902
791.141856,0.225000,0.073951
791.175267,0.275000,0.240767
791.208678,0.275000,0.129301
791.242088,-0.075000,0.054486
791.275498,0.175000,0.041458
791.308908,0.200000,0.122474
791.342317,0.200000,0.061237
791.375726,0.200000,0.035355
791.409135,0.025000,0.021651
791.442544,-0.250000,0.082916
791.475952,0.600000,0.220794
791.509360,1.425000,0.330483
791.542768,5.450000,0.539096
791.576176,12.875000,1.220848
791.609583,13.966667,0.436368
791.642990,13.125000,1.164246
791.676396,5.575000,1.199674
791.709803,1.775000,0.270127
791.743209,0.325000,0.188331
791.776615,0.025000,0.081968
791.810020,0.300000,0.187083
791.843425,0.225000,0.089268
791.876830,-0.450000,0.182003
791.910235,0.200000,0.050000
791.943640,-0.050000,0.075000
791.977044,0.000000,0.220794
792.010448,-0.075000,0.081968
792.043851,0.100000,0.079057
792.077254,0.000000,0.106066
792.110658,-0.075000,0.081968
792.144060,0.250000,0.043301
792.177463,0.300000,0.404660
792.210865,0.025000,0.041458
792.244267,0.050000,0.090139
792.277668,0.225000,0.167239
792.311070,0.025000,0.054486
792.344471,0.300000,0.111803
792.377872,-0.025000,0.041458
792.411272,0.200000,0.196850
792.444672,0.125000,0.041458
792.478072,0.000000,0.035355
792.511472,-0.100000,0.141421
792.544871,0.150000,0.055902
792.578271,0.050000,0.055902
792.611669,0.250000,0.134629
792.645068,0.100000,0.093541
792.678466,-0.425000,0.081968
792.711864,0.150000,0.219374
792.745262,0.350000,0.277263
792.778659,-0.125000,0.064952
792.812056,0.225000,0.129301
792.845453,0.300000,0.136931
792.878850,-0.050000,0.075000
792.912246,0.125000,0.081968
792.945642,-0.100000,0.070711
792.979038,0.525000,0.174553
793.012433,0.325000,0.054486
793.045829,-0.100000,0.035355
793.079223,-0.100000,0.079057
793.112618,-0.075000,0.147373
793.146012,0.300000,0.093541
793.179406,0.150000,0.134629
793.212800,-0.025000,0.119242
793.246194,0.125000,0.263095
793.279587,0.525000,0.339807
793.312980,0.075000,0.073951
793.346373,0.275000,0.194856
793.379765,1.575000,0.207289
793.413157,6.900000,0.562361
793.446549,10.975000,1.020646
793.479940,17.225000,1.437174
793.513332,16.875000,1.568987
793.546723,4.600000,0.491172
793.580113,2.100000,0.814709
793.613504,0.750000,0.511737
793.646894,0.175000,0.290205
793.680284,-0.100000,0.117260
793.713673,0.000000,0.035355
793.747062,0.175000,0.064952
793.780451,0.200000,0.209165
793.813840,0.150000,0.082916
793.847228,0.275000,0.096014
793.880617,0.300000,0.122474
793.914004,0.050000,0.082916
793.947392,0.125000,0.188331
793.980779,0.000000,0.093541
794.014166,-0.250000,0.108972
794.047553,0.200000,0.293684
794.080940,0.225000,0.089268
794.114326,0.200000,0.169558
794.147712,0.075000,0.041458
794.181097,0.275000,0.102317
794.214483,0.650000,0.419076
794.247868,0.325000,0.147373
794.281252,-0.100000,0.086603
794.314637,-0.325000,0.129301
794.348021,0.425000,0.073951
794.381405,0.200000,0.165831
794.414788,0.075000,0.041458
794.448172,0.600000,0.190394
794.481555,0.075000,0.073951
794.514938,0.100000,0.165831
794.548320,-0.025000,0.124373
794.581702,0.250000,0.195256
794.615084,0.325000,0.191621
794.648466,0.175000,0.102317
794.681847,0.350000,0.075000
794.715228,-0.275000,0.081968
794.748609,0.275000,0.288043
794.781990,-0.650000,0.258602
794.815370,0.000000,0.154110
794.848750,-0.025000,0.134048
794.882129,-0.225000,0.155624
794.915509,-0.025000,0.054486
794.948888,0.025000,0.207289
794.982267,0.250000,0.082916
795.015645,0.375000,0.124373
795.049023,0.250000,0.192029
795.082401,0.075000,0.081968
795.115779,-0.025000,0.054486
795.149156,0.525000,0.201168
795.182534,0.650000,0.143614
795.215910,0.225000,0.138632
795.249287,1.200000,0.266927
795.282663,5.125000,0.611734
795.316039,15.325000,0.853211
795.349415,20.700000,1.812112
795.382790,25.300000,0.849264
795.416165,19.700000,0.975320
795.449540,5.575000,0.628863
795.482915,2.325000,0.437857
795.516289,0.425000,0.064952
795.549663,-0.100000,0.154110
795.583037,-0.125000,0.041458
795.616410,0.125000,0.096014
795.649783,-0.200000,0.035355
795.683156,0.200000,0.070711
795.716529,0.575000,0.191621
795.749901,-0.125000,0.073951
795.783273,0.100000,0.070711
795.816645,-0.075000,0.129301
795.850016,0.150000,0.075000
795.883387,0.325000,0.073951
795.916758,0.025000,0.021651
795.950129,0.200000,0.206155
795.983499,-0.050000,0.090139
796.016869,-0.225000,0.119242
796.050239,-0.125000,0.267804
796.083608,0.475000,0.348882
796.116977,0.000000,0.106066
796.150346,-0.325000,0.096014
796.183714,0.050000,0.025000
796.217083,0.200000,0.050000
796.250451,0.100000,0.234521
796.283818,0.125000,0.096014
796.317186,0.200000,0.127475
796.350553,0.425000,0.374792
796.383920,0.175000,0.163459
796.417286,0.625000,0.255869
796.450653,0.000000,0.061237
796.484019,0.350000,0.103078
796.517384,0.400000,0.187083
796.550750,0.175000,0.089268
796.584115,0.225000,0.124373
796.617480,0.250000,0.182003
796.650844,0.225000,0.108253
796.684209,0.250000,0.192029
796.717573,-0.075000,0.021651
796.750936,0.375000,0.147373
796.784300,0.625000,0.397453
796.817663,0.125000,0.113880
796.851026,0.200000,0.220794
796.884388,-0.075000,0.054486
796.917751,0.300000,0.122474
796.951113,0.025000,0.188331
796.984474,0.425000,0.343466
797.017836,0.500000,0.127475
797.051197,0.325000,0.328586
797.084558,0.775000,0.424816
797.117918,0.425000,0.184983
797.151279,1.400000,0.183712
797.184639,5.450000,0.640800
797.217998,18.925000,0.787698
797.251358,32.450000,1.207011
797.284717,38.825000,0.697652
797.318076,22.250000,0.461655
797.351434,7.275000,0.320887
797.384793,1.625000,0.556074
797.418151,0.350000,0.175000
797.451508,0.075000,0.064952
797.484866,0.525000,0.276981
797.518223,0.875000,0.274716
797.551580,-0.000000,0.093541
797.584936,-0.025000,0.041458
797.618292,0.000000,0.061237
797.651648,0.200000,0.117260
797.685004,0.075000,0.073951
797.718360,0.325000,0.096014
797.751715,0.375000,0.096014
797.785069,0.100000,0.093541
797.818424,-0.175000,0.143069
797.851778,0.150000,0.103078
797.885132,-0.175000,0.081968
797.918486,0.325000,0.174553
797.951839,0.075000,0.054486
797.985192,0.200000,0.187083
798.018545,0.400000,0.127475
798.051898,0.425000,0.064952
798.085250,0.550000,0.305164
798.118602,0.325000,0.260708
798.151954,-0.100000,0.111803
798.185305,0.075000,0.213234
798.218656,0.225000,0.108253
798.252007,0.525000,0.096014
798.285357,0.675000,0.354216
798.318708,0.475000,0.184983
798.352057,0.325000,0.147373
798.385407,0.800000,0.451387
798.418756,0.125000,0.041458
798.452106,0.300000,0.154110
798.485454,0.150000,0.227761
798.518803,0.425000,0.073951
798.552151,0.100000,0.136931
798.585499,0.375000,0.089268
798.618847,0.050000,0.129904
798.652194,0.025000,0.054486
798.685541,0.625000,0.096014
798.718888,0.675000,0.265460
798.752234,0.400000,0.196850
798.785580,0.725000,0.188331
798.818926,0.450000,0.219374
798.852272,0.375000,0.221853
798.885617,0.200000,0.190394
798.918962,0.275000,0.267804
798.952307,-0.025000,0.129301
798.985651,0.350000,0.082916
799.018996,0.400000,0.196850
799.052339,2.850000,0.512957
799.085683,10.200000,0.860233
799.119026,24.266667,1.197045
799.152369,44.550000,2.593381
799.185712,59.275000,1.946592
799.219054,36.950000,2.361541
799.252397,10.200000,0.508675
799.285738,2.475000,0.235518
799.319080,0.525000,0.230149
799.352421,0.475000,0.113880
799.385762,0.350000,0.114564
799.419103,0.175000,0.224653
799.452443,0.475000,0.207289
799.485783,0.200000,0.176777
799.519123,0.150000,0.103078
799.552463,0.000000,0.136931
799.585802,0.650000,0.400780
799.619141,0.175000,0.119242
799.652480,-0.200000,0.035355
799.685818,-0.225000,0.108253
799.719156,0.200000,0.086603
799.752494,0.475000,0.178098
799.785831,0.125000,0.073951
799.819169,0.325000,0.221853
799.852506,0.000000,0.106066
799.885842,0.525000,0.341641
799.919179,1.175000,0.514022
799.952515,0.400000,0.289396
799.985850,0.400000,0.190394
800.019186,0.275000,0.155624
800.052521,0.375000,0.276981
800.085856,-0.075000,0.089268
800.119191,1.025000,0.480072
800.152525,0.125000,0.191621
800.185859,0.450000,0.201556
800.219193,0.050000,0.055902
800.252526,0.500000,0.127475
800.285859,-0.025000,0.089268
800.319192,0.200000,0.093541
800.352525,0.375000,0.163459
800.385857,0.150000,0.160078
800.419189,0.425000,0.081968
800.452521,0.275000,0.124373
800.485852,0.525000,0.221853
800.519183,-0.475000,0.041458
800.552514,0.525000,0.235518
800.585844,-0.025000,0.320887
800.619175,0.550000,0.340037
800.652505,0.200000,0.093541
800.685834,0.500000,0.150000
800.719164,0.375000,0.096014
800.752493,0.500000,0.434454
800.785821,0.375000,0.096014
800.819150,0.350000,0.192029
800.852478,0.200000,0.145774
800.885806,0.500000,0.106066
800.919134,0.950000,0.363146
800.952461,2.366667,0.133853
800.985788,13.875000,1.092803
801.019115,43.566667,0.240659
801.052441,103.225000,4.062692
801.085767,157.000000,2.531551
801.119093,124.525000,2.519021
801.152419,38.900000,2.378287
801.185744,10.800000,0.532682
801.219069,1.925000,0.562778
801.252394,0.825000,0.263095
801.285718,0.100000,0.079057
801.319042,0.300000,0.280624
801.352366,0.075000,0.207289
801.385690,0.425000,0.181573
801.419013,0.125000,0.308980
801.452336,0.075000,0.232849
801.485658,-0.475000,0.216145
801.518981,0.575000,0.415895
801.552303,0.025000,0.054486
801.585625,0.325000,0.081968
801.618946,0.025000,0.198037
801.652267,-0.050000,0.043301
801.685588,0.750000,0.403887
801.718909,0.075000,0.108253
801.752229,0.325000,0.113880
801.785549,0.025000,0.021651
801.818869,0.300000,0.297909
801.852188,0.225000,0.373120
801.885507,0.450000,0.075000
801.918826,0.450000,0.043301
801.952145,0.100000,0.176777
801.985463,0.275000,0.216145
802.018781,0.600000,0.520817
802.052099,0.450000,0.340037
802.085416,0.300000,0.106066
802.118733,0.350000,0.246221
802.152050,0.125000,0.089268
802.185366,0.275000,0.155624
802.218683,0.050000,0.055902
802.251999,0.300000,0.093541
802.285314,0.075000,0.163459
802.318630,0.425000,0.119242
802.351945,0.500000,0.162019
802.385259,0.125000,0.041458
802.418574,0.150000,0.213600
802.451888,0.150000,0.108972
802.485202,0.475000,0.276981
802.518515,1.100000,0.592663
802.551829,0.225000,0.155624
802.585142,0.975000,0.188331
802.618454,0.375000,0.147373
802.651767,0.450000,0.349106
802.685079,-0.450000,0.178536
802.718391,0.500000,0.297909
802.751702,0.375000,0.113880
802.785013,0.200000,0.136931
802.818324,0.325000,0.167239
802.851635,1.200000,0.337268
802.884945,3.475000,0.424816
802.918255,24.525000,1.667099
802.951565,81.600000,2.613188
802.984874,155.225000,2.188714
803.018184,218.025000,2.810110
803.051492,140.925000,2.831160
803.084801,24.633333,1.462162
803.118109,4.866667,0.685869
803.151417,1.750000,0.505594
803.184725,0.800000,0.212132
803.218032,0.275000,0.021651
803.251339,0.400000,0.237171
803.284646,0.200000,0.106066
803.317953,0.125000,0.054486
803.351259,0.200000,0.162019
803.384565,-0.025000,0.064952
803.417870,0.250000,0.082916
803.451176,0.125000,0.054486
803.484481,0.100000,0.127475
803.517786,0.600000,0.220794
803.551090,0.325000,0.041458
803.584394,0.125000,0.155624
803.617698,0.750000,0.225000
803.651002,0.600000,0.190394
803.684305,0.050000,0.134629
803.717608,0.500000,0.392110
803.750910,0.250000,0.292617
803.784213,0.700000,0.331662
803.817515,0.575000,0.383039
803.850817,0.475000,0.364649
803.884118,0.825000,0.240767
803.917419,1.125000,0.421863
803.950720,0.575000,0.143069
803.984021,0.250000,0.160078
804.017321,0.325000,0.108253
804.050621,0.200000,0.154110
804.083921,0.325000,0.174553
804.117220,1.350000,0.541410
804.150519,0.725000,0.394295
804.183818,0.525000,0.181573
804.217117,-0.000000,0.196850
804.250415,0.525000,0.224653
804.283713,0.425000,0.129301
804.317011,0.200000,0.070711
804.350308,1.100000,0.734847
804.383605,0.575000,0.308980
804.416902,0.875000,0.270127
804.450198,0.600000,0.150000
804.483494,1.200000,0.154110
804.516790,0.850000,0.195256
804.550086,0.600000,0.196850
804.583381,0.275000,0.270127
804.616676,0.450000,0.277263
804.649971,0.825000,0.174553
804.683265,0.475000,0.108253
804.716559,-0.200000,0.145774
804.749853,0.975000,0.442118
804.783146,1.100000,0.280624
804.816440,5.775000,0.693159
804.849732,39.025000,2.103977
804.883025,122.333333,3.609074
804.916317,217.175000,4.057612
804.949609,294.675000,3.009646
804.982901,177.425000,4.784398
805.016192,37.425000,2.900943
805.049484,6.850000,0.550568
805.082774,2.025000,0.609687
805.116065,1.125000,0.267804
805.149355,0.350000,0.332603
805.182645,0.225000,0.147373
805.215935,0.450000,0.175000
805.249224,0.200000,0.061237
805.282513,0.300000,0.127475
805.315802,0.725000,0.296595
805.349090,0.550000,0.192029
805.382378,0.175000,0.081968
805.415666,0.700000,0.257391
805.448954,0.550000,0.182003
805.482241,0.350000,0.251247
805.515528,0.750000,0.160078
805.548815,0.425000,0.184983
805.582101,0.500000,0.093541
805.615387,0.375000,0.357727
805.648673,0.250000,0.075000
805.681958,0.275000,0.188331
805.715243,0.400000,0.217945
805.748528,0.700000,0.061237
805.781813,0.500000,0.331662
805.815097,1.425000,0.204252
805.848381,0.250000,0.188746
805.881665,0.225000,0.113880
805.914948,0.525000,0.194856
805.948231,0.125000,0.174553
805.981514,0.550000,0.275000
806.014796,0.550000,0.182003
806.048079,0.875000,0.230149
806.081360,0.575000,0.129301
806.114642,0.850000,0.317214
806.147923,0.175000,0.102317
806.181204,0.475000,0.201168
806.214485,-0.175000,0.138632
806.247765,0.425000,0.167239
806.281046,0.450000,0.216506
806.314325,0.375000,0.330483
806.347605,0.725000,0.163459
806.380884,0.175000,0.587766
806.414163,0.850000,0.403887
806.447441,0.650000,0.160078
806.480720,0.725000,0.320887
806.513998,0.675000,0.119242
806.547275,0.725000,0.064952
806.580553,0.450000,0.167705
806.613830,0.950000,0.201556
806.647107,0.875000,0.198037
806.680383,0.800000,0.127475
806.713659,2.475000,0.668370
806.746935,6.125000,0.240767
806.780211,47.350000,1.424123
806.813486,185.125000,3.990673
806.846761,409.825000,7.978516
806.880036,560.775000,5.453024
806.913310,435.733333,3.765025
806.946584,116.400000,4.156170
806.979858,19.150000,0.882114
807.013132,2.675000,0.320887
807.046405,0.825000,0.300780
807.079678,1.100000,0.358818
807.112951,0.975000,0.298695
807.146223,0.050000,0.055902
807.179495,-0.100000,0.050000
807.212767,-0.175000,0.296595
807.246038,0.800000,0.183712
807.279309,1.125000,0.640678
807.312580,0.550000,0.241091
807.345850,0.125000,0.178098
807.379121,0.100000,0.117260
807.412390,0.525000,0.213234
807.445660,0.275000,0.041458
807.478929,0.650000,0.258602
807.512198,0.900000,0.117260
807.545467,0.550000,0.317214
807.578735,0.200000,0.079057
807.612004,-0.375000,0.119242
807.645271,0.150000,0.114564
807.678539,-0.025000,0.113880
807.711806,0.550000,0.167705
807.745073,0.150000,0.160078
807.778340,0.650000,0.270416
807.811606,1.475000,0.561666
807.844872,1.800000,0.165831
807.878138,2.050000,0.752080
807.911403,0.775000,0.450521
807.944668,1.225000,0.219018
807.977933,1.125000,0.537791
808.011197,0.625000,0.258300
808.044462,0.525000,0.064952
808.077725,0.150000,0.025000
808.110989,0.850000,0.182003
808.144252,1.400000,0.333542
808.177515,0.825000,0.096014
808.210778,0.350000,0.114564
808.244040,0.850000,0.167705
808.277302,0.450000,0.219374
808.310564,0.425000,0.089268
808.343826,1.475000,0.290205
808.377087,0.975000,0.253414
808.410348,0.550000,0.175000
808.443608,0.600000,0.154110
808.476869,0.500000,0.351781
808.510129,0.300000,0.176777
808.543388,0.650000,0.143614
808.576648,1.225000,0.235518
808.609907,0.950000,0.251247
808.643165,2.475000,0.314990
808.676424,2.566667,0.124164
808.709682,18.100000,0.636396
808.742940,145.125000,3.522317
808.776197,472.325000,9.322780
808.809455,752.650000,15.846707
808.842712,842.225000,7.102145
808.875968,432.866667,5.035416
808.909225,82.250000,2.302851
808.942481,13.366667,1.063798
808.975736,2.250000,0.336341
809.008992,1.550000,0.305164
809.042247,1.300000,0.403113
809.075502,0.650000,0.340037
809.108756,-0.450000,0.055902
809.142011,0.225000,0.096014
809.175265,0.100000,0.061237
809.208518,0.850000,0.341870
809.241772,0.475000,0.288043
809.275025,0.725000,0.124373
809.308277,0.975000,0.406779
809.341530,0.525000,0.143069
809.374782,0.750000,0.207666
809.408034,0.825000,0.167239
809.441285,0.450000,0.317214
809.474536,-0.025000,0.159589
809.507787,0.525000,0.232849
809.541038,0.800000,0.176777
809.574288,0.850000,0.356195
809.607538,0.650000,0.160078
809.640788,0.700000,0.379144
809.674037,1.050000,0.357946
809.707286,0.625000,0.216145
809.740535,2.025000,0.243349
809.773783,2.050000,0.760345
809.807032,0.975000,0.216145
809.840279,1.025000,0.570499
809.873527,0.925000,0.184983
809.906774,0.650000,0.279508
809.940021,0.600000,0.061237
809.973268,0.625000,0.041458
810.006514,1.150000,0.301040
810.039760,0.950000,0.238485
810.073006,1.675000,0.310996
810.106251,1.400000,0.348210
810.139497,1.825000,0.213234
810.172741,1.525000,0.119242
810.205986,1.375000,0.265460
810.239230,0.600000,0.183712
810.272474,2.275000,0.442118
810.305718,3.125000,0.719700
810.338961,2.575000,0.902341
810.372204,1.275000,0.495448
810.405447,0.550000,0.188746
810.438689,1.700000,0.306186
810.471931,1.150000,0.043301
810.505173,2.350000,0.402337
810.538414,2.975000,0.616821
810.571656,3.525000,0.697652
810.604897,4.000000,0.395285
810.638137,9.225000,0.709203
810.671377,47.875000,2.873886
810.704617,305.133333,6.053339
810.737857,1014.425000,27.045341
810.771096,1470.650000,25.747439
810.804335,1519.050000,12.126134
810.837574,745.350000,15.146968
810.870813,108.950000,3.205951
810.904051,20.675000,2.392011
810.937288,3.500000,0.671751
810.970526,1.325000,0.054486
811.003763,1.250000,0.383243
811.037000,0.275000,0.230149
811.070237,0.200000,0.106066
811.103473,0.100000,0.209165
811.136709,0.025000,0.384667
811.169945,0.300000,0.262202
811.203180,1.100000,0.127475
811.236415,0.300000,0.035355
811.269650,0.625000,0.143069
811.302884,0.250000,0.391312
811.336119,0.025000,0.397453
811.369352,-0.100000,0.183712
811.402586,0.633333,0.174404
811.435819,-0.325000,0.379761
811.469052,1.400000,0.823863
811.502285,0.525000,0.976841
811.535517,1.275000,0.369755
811.568749,0.975000,0.272431
811.601981,1.450000,0.726722
811.635212,1.625000,0.856136
811.668443,0.900000,0.335410
811.701674,0.750000,0.108972
811.734905,0.500000,0.209165
811.768135,0.325000,0.221853
811.801365,1.225000,0.318934
811.834594,2.025000,0.371441
811.867824,1.200000,0.706222
811.901053,0.450000,0.251247
811.934281,-0.025000,0.113880
811.967510,0.175000,0.304908
812.000738,0.425000,0.207289
812.033965,0.375000,0.314990
812.067193,1.150000,0.227761
812.100420,1.375000,0.155624
812.133647,0.525000,0.096014
812.166873,-0.400000,0.203101
812.200099,0.750000,0.207666
812.233325,0.300000,0.162019
812.266551,0.075000,0.143069
812.299776,0.500000,0.117260
812.333001,0.800000,0.122474
812.366226,0.875000,0.561666
812.399450,0.525000,0.207289
812.432674,0.475000,0.221853
812.465898,-0.250000,0.182003
812.499121,0.650000,0.246221
812.532345,0.500000,0.382426
812.565567,0.625000,0.151554
812.598790,1.700000,0.520817
812.632012,7.725000,0.654193
812.665234,72.866667,2.175527
812.698456,326.275000,9.789431
812.731677,524.066667,3.960166
812.764898,554.650000,5.599163
812.798119,321.525000,3.269819
812.831339,39.233333,2.647955
812.864559,8.475000,0.814996
812.897779,1.966667,0.378043
812.930998,1.400000,0.340955
812.964217,0.850000,0.286138
812.997436,0.100000,0.111803
813.030655,1.200000,0.388909
813.063873,-0.075000,0.113880
813.097091,0.050000,0.090139
813.130308,-0.350000,0.364863
813.163526,0.350000,0.275000
813.196743,0.200000,0.289396
813.229959,0.450000,0.235850
813.263176,0.275000,0.188331
813.296392,-0.250000,0.055902
813.329607,0.100000,0.050000
813.362823,0.175000,0.167239
813.396038,0.450000,0.213600
813.429253,-0.125000,0.201168
813.462467,-0.375000,0.081968
813.495682,-0.250000,0.082916
813.528895,0.000000,0.061237
813.562109,0.075000,0.108253
813.595322,0.175000,0.124373
813.628535,0.200000,0.070711
813.661748,0.025000,0.129301
813.694960,0.050000,0.188746
813.728172,0.050000,0.114564
813.761384,0.550000,0.394493
813.794596,-0.375000,0.216145
813.827807,-0.200000,0.358818
813.861017,-0.175000,0.124373
813.894228,0.225000,0.134048
813.927438,0.250000,0.114564
813.960648,0.125000,0.021651
813.993858,0.175000,0.143069
814.027067,0.400000,0.237171
814.060276,0.350000,0.219374
814.093485,0.150000,0.175000
814.126693,0.500000,0.242384
814.159901,-0.175000,0.089268
814.193109,-0.525000,0.174553
814.226316,0.075000,0.041458
814.259523,0.475000,0.243349
814.292730,0.325000,0.310996
814.325936,0.850000,0.207666
814.359143,-0.075000,0.102317
814.392348,0.075000,0.155624
814.425554,-0.175000,0.054486
814.458759,0.725000,0.265460
814.491964,-0.100000,0.070711
814.525169,0.050000,0.114564
814.558373,0.350000,0.175000
814.591577,-0.050000,0.125000
814.624781,0.500000,0.247487
814.657984,1.025000,0.267804
