#{
#    "background_file": "Backgrounds\\\\bg_787.999nm_16bin_197st_244en_10.0s_110g_4x_1_seq.txt",
#    "ccd_image_settings": [
#        1,
#        16,
#        1,
#        1600,
#        197,
#        244
#    ],
#    "ccd_temperature": "-88",
#    "cdRatios": {
#        "mean": 0.9225681747414646,
#        "std": 0.007262037483011293
#    },
#    "center_lambda": 788.0,
#    "comments": "",
#    "dark_region": 0.2851711040651735,
#    "date": "11/17/19 14:19:53PM",
#    "eff_field": 1.5,
#    "exposure": 10.0,
#    "fel_lambda": "15.0",
#    "fel_pol": "H",
#    "fel_pulses": 40,
#    "fel_pyro_cal": "0.017",
#    "fel_reprate": "1.07",
#    "fel_transmission": "1.0",
#    "fel_transmission_fits": {
#        "A": 1.0,
#        "C": 0.0,
#        "Mu": 0.0
#    },
#    "fieldInt": {
#        "mean": 9479.932772727272,
#        "std": 390.61067854820215
#    },
#    "fieldStrength": {
#        "mean": 44.664522727272725,
#        "std": 0.9177397611964017
#    },
#    "fpTime": {
#        "mean": 1.2057783919575193,
#        "std": 0.08943585398220329
#    },
#    "gain": 110,
#    "grating": 3,
#    "images_in_sequence": [
#        "hsg_SpotD_crystal16_a45_HAna125.txt",
#        "hsg_SpotD_crystal16_a45_HAna126.txt",
#        "hsg_SpotD_crystal16_a45_HAna127.txt",
#        "hsg_SpotD_crystal16_a45_HAna128.txt"
#    ],
#    "nir_lambda": "820.9918",
#    "nir_pola": "45",
#    "nir_polg": "0",
#    "nir_power": "100.0",
#    "pulseEnergies": {
#        "mean": 2.0615681818181817,
#        "std": 0.09971140537520605
#    },
#    "pyroVoltage": {
#        "mean": 0.131506177925271,
#        "std": 0.007329848338359776
#    },
#    "rotatorAngle": 315.0,
#    "sample_Temp": "58",
#    "sample_name": "L001218.C3",
#    "series": "SpotD_16_45",
#    "slits": "60",
#    "spec_step": "",
#    "window_trans": 0.92,
#    "y_max": 2,
#    "y_min": 1
#}
#
#
#
#
#
#
#
#
#
#
#
#
#
#
#
#
#
#
#
#
#
#
#
#
#
#
Wavelength,Signal,error
nm,arb. u.,arb.u.
Wavelength,SpotD_16_45,error
761.200217,0.375000,0.219018
761.233859,0.000000,0.127475
761.267500,0.200000,0.079057
761.301141,0.050000,0.160078
761.334781,0.275000,0.326678
761.368422,-0.325000,0.089268
761.402062,0.450000,0.213600
761.435702,-0.375000,0.081968
761.469342,-0.025000,0.096014
761.502981,0.275000,0.213234
761.536620,0.150000,0.125000
761.570259,0.325000,0.339807
761.603898,-0.175000,0.054486
761.637537,0.100000,0.289396
761.671175,-0.025000,0.124373
761.704813,-0.025000,0.089268
761.738451,0.050000,0.103078
761.772088,-0.050000,0.043301
761.805726,-0.075000,0.119242
761.839363,0.125000,0.310996
761.873000,-0.275000,0.064952
761.906636,0.075000,0.041458
761.940273,0.175000,0.155624
761.973909,0.425000,0.267804
762.007545,0.225000,0.021651
762.041180,-0.200000,0.136931
762.074816,-0.175000,0.073951
762.108451,0.300000,0.231840
762.142086,0.300000,0.203101
762.175720,0.150000,0.114564
762.209355,0.050000,0.160078
762.242989,0.275000,0.096014
762.276623,0.100000,0.061237
762.310257,0.025000,0.102317
762.343890,-0.475000,0.064952
762.377524,-0.075000,0.096014
762.411157,0.150000,0.163936
762.444789,-0.050000,0.025000
762.478422,0.100000,0.070711
762.512054,0.125000,0.064952
762.545686,0.225000,0.102317
762.579318,0.150000,0.129904
762.612950,0.300000,0.231840
762.646581,-0.125000,0.073951
762.680212,0.100000,0.127475
762.713843,-0.025000,0.041458
762.747474,0.175000,0.081968
762.781104,-0.150000,0.055902
762.814734,-0.175000,0.191621
762.848364,-0.050000,0.134629
762.881994,-0.075000,0.081968
762.915623,0.225000,0.155624
762.949252,0.125000,0.124373
762.982881,0.000000,0.093541
763.016510,0.475000,0.369755
763.050139,-0.300000,0.145774
763.083767,-0.100000,0.035355
763.117395,0.175000,0.167239
763.151023,0.100000,0.061237
763.184650,0.250000,0.075000
763.218277,-0.175000,0.064952
763.251904,0.150000,0.114564
763.285531,0.175000,0.124373
763.319158,0.475000,0.178098
763.352784,0.250000,0.251247
763.386410,0.100000,0.196850
763.420036,-0.400000,0.035355
763.453661,0.300000,0.257391
763.487287,-0.150000,0.055902
763.520912,-0.900000,0.297909
763.554537,-0.075000,0.054486
763.588161,-0.150000,0.055902
763.621786,-0.050000,0.025000
763.655410,0.250000,0.108972
763.689034,-0.025000,0.240767
763.722657,-0.075000,0.041458
763.756281,0.075000,0.124373
763.789904,0.075000,0.178098
763.823527,-0.125000,0.124373
763.857150,-0.075000,0.064952
763.890772,-0.300000,0.145774
763.924394,0.075000,0.054486
763.958016,0.050000,0.125000
763.991638,0.450000,0.201556
764.025260,0.250000,0.075000
764.058881,0.275000,0.151554
764.092502,-0.275000,0.113880
764.126123,0.225000,0.138632
764.159743,-0.200000,0.111803
764.193363,0.300000,0.306186
764.226983,0.100000,0.106066
764.260603,0.050000,0.055902
764.294223,-0.075000,0.054486
764.327842,-0.025000,0.081968
764.361461,-0.025000,0.102317
764.395080,0.175000,0.240767
764.428699,-0.125000,0.089268
764.462317,0.200000,0.150000
764.495935,-0.175000,0.021651
764.529553,0.250000,0.340037
764.563170,0.175000,0.064952
764.596788,0.375000,0.194856
764.630405,-0.200000,0.079057
764.664022,-0.075000,0.096014
764.697638,0.425000,0.143069
764.731255,0.175000,0.129301
764.764871,0.250000,0.188746
764.798487,-0.275000,0.021651
764.832103,0.050000,0.129904
764.865718,0.075000,0.041458
764.899333,0.000000,0.035355
764.932948,0.700000,0.584166
764.966563,-0.050000,0.125000
765.000177,0.225000,0.108253
765.033792,-0.025000,0.124373
765.067406,0.075000,0.064952
765.101019,0.150000,0.134629
765.134633,-0.425000,0.041458
765.168246,-0.050000,0.075000
765.201859,-0.025000,0.089268
765.235472,0.325000,0.119242
765.269084,0.250000,0.025000
765.302697,-0.200000,0.035355
765.336309,-0.050000,0.025000
765.369920,0.025000,0.064952
765.403532,-0.175000,0.089268
765.437143,-0.225000,0.054486
765.470754,0.125000,0.064952
765.504365,0.375000,0.147373
765.537976,0.400000,0.196850
765.571586,0.025000,0.129301
765.605196,-0.225000,0.073951
765.638806,0.125000,0.170935
765.672416,0.100000,0.000000
765.706025,0.075000,0.124373
765.739634,0.225000,0.064952
765.773243,0.625000,0.374792
765.806851,0.000000,0.127475
765.840460,0.200000,0.183712
765.874068,-0.075000,0.096014
765.907676,-0.125000,0.096014
765.941284,0.175000,0.167239
765.974891,0.225000,0.147373
766.008498,0.125000,0.108253
766.042105,0.825000,0.399022
766.075712,-0.150000,0.114564
766.109318,0.225000,0.265460
766.142924,0.225000,0.204252
766.176530,-0.450000,0.082916
766.210136,0.050000,0.143614
766.243741,0.025000,0.073951
766.277347,0.600000,0.584166
766.310951,-0.075000,0.089268
766.344556,0.550000,0.391312
766.378161,0.300000,0.145774
766.411765,-0.150000,0.075000
766.445369,-0.150000,0.055902
766.478973,-0.150000,0.043301
766.512576,-0.050000,0.082916
766.546179,-0.050000,0.025000
766.579782,0.300000,0.215058
766.613385,-0.025000,0.054486
766.646988,-0.400000,0.106066
766.680590,0.025000,0.054486
766.714192,0.325000,0.248433
766.747794,0.000000,0.070711
766.781395,0.350000,0.082916
766.814996,-0.175000,0.147373
766.848597,-0.075000,0.021651
766.882198,0.075000,0.143069
766.915799,0.100000,0.106066
766.949399,0.225000,0.081968
766.982999,0.175000,0.073951
767.016599,0.200000,0.209165
767.050198,0.000000,0.106066
767.083798,0.200000,0.117260
767.117397,-0.100000,0.070711
767.150996,0.250000,0.108972
767.184594,-0.100000,0.070711
767.218193,-0.125000,0.073951
767.251791,-0.200000,0.061237
767.285389,-0.300000,0.050000
767.318986,0.325000,0.310996
767.352583,0.750000,0.288314
767.386181,0.250000,0.147902
767.419777,-0.175000,0.041458
767.453374,0.150000,0.147902
767.486970,-0.350000,0.160078
767.520567,0.225000,0.129301
767.554162,0.000000,0.061237
767.587758,-0.100000,0.035355
767.621353,0.200000,0.079057
767.654949,-0.000000,0.093541
767.688543,0.125000,0.021651
767.722138,-0.000000,0.111803
767.755732,0.250000,0.082916
767.789327,-0.025000,0.096014
767.822921,-0.425000,0.064952
767.856514,0.025000,0.119242
767.890108,0.075000,0.064952
767.923701,0.375000,0.227418
767.957294,0.600000,0.434454
767.990886,0.025000,0.089268
768.024479,-0.075000,0.054486
768.058071,0.000000,0.070711
768.091663,-0.300000,0.035355
768.125255,0.025000,0.096014
768.158846,-0.025000,0.096014
768.192437,-0.325000,0.021651
768.226028,-0.150000,0.090139
768.259619,-0.025000,0.096014
768.293209,-0.175000,0.054486
768.326799,0.275000,0.184983
768.360389,0.225000,0.113880
768.393979,0.075000,0.167239
768.427568,0.075000,0.073951
768.461158,0.100000,0.183712
768.494747,-0.050000,0.160078
768.528335,-0.025000,0.073951
768.561924,0.525000,0.230149
768.595512,0.525000,0.258300
768.629100,-0.050000,0.025000
768.662688,-0.075000,0.129301
768.696275,-0.125000,0.155624
768.729862,0.025000,0.124373
768.763449,0.175000,0.096014
768.797036,0.250000,0.268095
768.830623,0.075000,0.081968
768.864209,0.200000,0.203101
768.897795,-0.050000,0.025000
768.931381,0.000000,0.035355
768.964966,-0.250000,0.055902
768.998551,0.075000,0.054486
769.032136,0.175000,0.267804
769.065721,-0.150000,0.043301
769.099305,0.425000,0.392707
769.132890,-0.200000,0.106066
769.166474,0.125000,0.064952
769.200057,-0.225000,0.054486
769.233641,-0.150000,0.103078
769.267224,0.000000,0.127475
769.300807,-0.325000,0.134048
769.334390,-0.150000,0.182003
769.367972,0.350000,0.167705
769.401555,-0.300000,0.035355
769.435137,-0.225000,0.096014
769.468718,0.050000,0.055902
769.502300,-0.250000,0.025000
769.535881,-0.025000,0.216145
769.569462,-0.450000,0.075000
769.603043,0.225000,0.124373
769.636623,0.050000,0.055902
769.670204,0.675000,0.434993
769.703784,0.425000,0.283670
769.737364,0.150000,0.055902
769.770943,0.250000,0.129904
769.804522,-0.150000,0.055902
769.838101,0.100000,0.093541
769.871680,-0.175000,0.096014
769.905259,-0.325000,0.073951
769.938837,0.225000,0.102317
769.972415,0.075000,0.213234
770.005993,0.000000,0.035355
770.039570,0.125000,0.213234
770.073147,0.075000,0.021651
770.106724,0.350000,0.160078
770.140301,0.100000,0.093541
770.173878,-0.100000,0.061237
770.207454,0.125000,0.054486
770.241030,0.075000,0.089268
770.274606,0.150000,0.082916
770.308181,0.150000,0.082916
770.341757,0.425000,0.240767
770.375332,-0.075000,0.054486
770.408906,0.100000,0.141421
770.442481,-0.100000,0.093541
770.476055,-0.175000,0.143069
770.509629,0.100000,0.035355
770.543203,-0.175000,0.089268
770.576776,0.000000,0.035355
770.610350,0.125000,0.124373
770.643923,-0.075000,0.064952
770.677495,0.300000,0.293684
770.711068,-0.050000,0.147902
770.744640,-0.075000,0.054486
770.778212,-0.025000,0.021651
770.811784,0.175000,0.155624
770.845356,-0.075000,0.041458
770.878927,0.325000,0.113880
770.912498,0.500000,0.226385
770.946069,-0.150000,0.188746
770.979639,-0.075000,0.073951
771.013209,0.075000,0.073951
771.046779,-0.575000,0.041458
771.080349,0.100000,0.165831
771.113919,0.350000,0.251247
771.147488,0.225000,0.129301
771.181057,0.025000,0.041458
771.214626,-0.050000,0.082916
771.248194,0.075000,0.073951
771.281762,-0.200000,0.035355
771.315330,-0.025000,0.081968
771.348898,0.150000,0.082916
771.382465,-0.050000,0.134629
771.416033,-0.175000,0.073951
771.449600,-0.100000,0.061237
771.483166,0.050000,0.143614
771.516733,0.100000,0.061237
771.550299,0.025000,0.163459
771.583865,0.250000,0.160078
771.617431,0.000000,0.070711
771.650996,0.225000,0.108253
771.684562,0.075000,0.073951
771.718127,-0.025000,0.207289
771.751691,0.150000,0.167705
771.785256,-0.175000,0.064952
771.818820,-0.175000,0.108253
771.852384,0.150000,0.025000
771.885948,-0.150000,0.114564
771.919511,-0.275000,0.041458
771.953074,0.125000,0.089268
771.986637,0.050000,0.075000
772.020200,-0.025000,0.064952
772.053762,0.100000,0.111803
772.087325,0.175000,0.163459
772.120887,-0.475000,0.073951
772.154448,0.000000,0.050000
772.188010,-0.025000,0.129301
772.221571,0.325000,0.406779
772.255132,0.175000,0.073951
772.288692,-0.100000,0.100000
772.322253,-0.125000,0.167239
772.355813,-0.075000,0.406779
772.389373,-0.600000,0.035355
772.422933,-0.250000,0.134629
772.456492,0.475000,0.447737
772.490051,0.400000,0.206155
772.523610,-0.025000,0.073951
772.557169,0.100000,0.127475
772.590727,0.000000,0.061237
772.624285,0.050000,0.075000
772.657843,0.800000,0.364005
772.691401,-0.325000,0.102317
772.724958,0.275000,0.213234
772.758515,0.000000,0.035355
772.792072,0.075000,0.073951
772.825629,-0.150000,0.129904
772.859185,0.000000,0.079057
772.892741,-0.175000,0.096014
772.926297,-0.025000,0.129301
772.959853,-0.050000,0.075000
772.993408,-0.650000,0.075000
773.026963,-0.150000,0.025000
773.060518,-0.050000,0.103078
773.094073,-0.150000,0.175000
773.127627,0.025000,0.054486
773.161181,0.225000,0.113880
773.194735,0.325000,0.089268
773.228289,-0.025000,0.124373
773.261842,0.325000,0.096014
773.295395,0.100000,0.136931
773.328948,0.525000,0.143069
773.362500,0.025000,0.073951
773.396053,-0.250000,0.025000
773.429605,0.350000,0.246221
773.463157,0.200000,0.127475
773.496708,0.275000,0.096014
773.530260,-0.050000,0.163936
773.563811,0.150000,0.296859
773.597361,0.100000,0.165831
773.630912,-0.050000,0.055902
773.664462,0.200000,0.035355
773.698012,-0.225000,0.064952
773.731562,-0.100000,0.035355
773.765111,0.050000,0.108972
773.798661,0.100000,0.035355
773.832210,0.300000,0.231840
773.865758,0.050000,0.025000
773.899307,0.600000,0.150000
773.932855,-0.100000,0.035355
773.966403,-0.275000,0.096014
773.999951,0.025000,0.064952
774.033498,0.025000,0.041458
774.067046,0.100000,0.122474
774.100593,0.100000,0.061237
774.134139,0.300000,0.176777
774.167686,0.025000,0.041458
774.201232,0.050000,0.075000
774.234778,0.050000,0.043301
774.268324,0.200000,0.117260
774.301869,0.300000,0.183712
774.335414,-0.075000,0.081968
774.368959,0.350000,0.160078
774.402504,0.100000,0.061237
774.436048,-0.175000,0.073951
774.469592,0.125000,0.255869
774.503136,0.025000,0.108253
774.536680,0.075000,0.096014
774.570223,0.225000,0.041458
774.603766,0.050000,0.025000
774.637309,0.275000,0.073951
774.670852,0.000000,0.050000
774.704394,-0.025000,0.073951
774.737936,-0.275000,0.089268
774.771478,0.150000,0.160078
774.805020,0.250000,0.129904
774.838561,0.200000,0.111803
774.872102,0.450000,0.055902
774.905643,0.100000,0.035355
774.939183,0.025000,0.064952
774.972724,0.200000,0.200000
775.006264,0.425000,0.255869
775.039804,0.425000,0.188331
775.073343,-0.200000,0.154110
775.106882,-0.100000,0.231840
775.140421,0.325000,0.138632
775.173960,-0.225000,0.227418
775.207499,-0.300000,0.145774
775.241037,0.200000,0.106066
775.274575,-0.075000,0.064952
775.308113,-0.025000,0.113880
775.341650,0.125000,0.054486
775.375187,0.000000,0.061237
775.408724,0.025000,0.207289
775.442261,-0.025000,0.138632
775.475798,-0.200000,0.035355
775.509334,0.300000,0.127475
775.542870,-0.125000,0.081968
775.576405,-0.150000,0.114564
775.609941,0.175000,0.124373
775.643476,0.150000,0.043301
775.677011,-0.325000,0.089268
775.710546,0.425000,0.263095
775.744080,0.075000,0.108253
775.777614,0.250000,0.090139
775.811148,-0.100000,0.079057
775.844682,-0.275000,0.041458
775.878215,-0.200000,0.061237
775.911748,-0.025000,0.081968
775.945281,-0.050000,0.075000
775.978814,-0.200000,0.061237
776.012346,-0.125000,0.041458
776.045878,-0.175000,0.021651
776.079410,0.175000,0.096014
776.112941,0.000000,0.070711
776.146473,-0.000000,0.127475
776.180004,-0.050000,0.082916
776.213535,0.375000,0.304908
776.247065,-0.000000,0.106066
776.280595,0.150000,0.134629
776.314125,-0.025000,0.089268
776.347655,-0.250000,0.103078
776.381185,0.000000,0.257391
776.414714,0.125000,0.073951
776.448243,-0.075000,0.089268
776.481772,0.175000,0.245904
776.515300,-0.025000,0.081968
776.548828,-0.025000,0.119242
776.582356,-0.325000,0.124373
776.615884,-0.000000,0.079057
776.649411,0.175000,0.188331
776.682938,-0.025000,0.073951
776.716465,0.450000,0.192029
776.749992,0.175000,0.113880
776.783518,0.000000,0.117260
776.817044,0.275000,0.089268
776.850570,0.425000,0.201168
776.884096,0.500000,0.231840
776.917621,0.550000,0.283945
776.951146,0.100000,0.086603
776.984671,-0.475000,0.089268
777.018196,0.425000,0.204252
777.051720,0.175000,0.330483
777.085244,0.175000,0.021651
777.118768,-0.250000,0.055902
777.152292,0.100000,0.106066
777.185815,0.075000,0.134048
777.219338,-0.050000,0.075000
777.252861,-0.050000,0.043301
777.286383,-0.100000,0.050000
777.319905,-0.100000,0.061237
777.353427,0.300000,0.127475
777.386949,0.125000,0.073951
777.420471,0.225000,0.113880
777.453992,-0.075000,0.081968
777.487513,0.225000,0.174553
777.521033,-0.250000,0.075000
777.554554,-0.225000,0.054486
777.588074,0.225000,0.113880
777.621594,0.150000,0.114564
777.655114,0.250000,0.055902
777.688633,0.100000,0.196850
777.722152,0.000000,0.050000
777.755671,0.300000,0.150000
777.789190,-0.025000,0.064952
777.822708,-0.200000,0.061237
777.856226,0.150000,0.103078
777.889744,0.100000,0.035355
777.923261,0.150000,0.163936
777.956779,-0.025000,0.041458
777.990296,-0.075000,0.041458
778.023812,0.100000,0.061237
778.057329,-0.100000,0.136931
778.090845,0.125000,0.096014
778.124361,0.375000,0.355976
778.157877,0.125000,0.064952
778.191392,-0.075000,0.073951
778.224908,0.225000,0.119242
778.258423,0.425000,0.238157
778.291937,-0.000000,0.093541
778.325452,0.150000,0.103078
778.358966,-0.075000,0.054486
778.392480,0.175000,0.064952
778.425993,0.125000,0.113880
778.459507,0.075000,0.113880
778.493020,0.025000,0.119242
778.526533,0.100000,0.093541
778.560045,-0.275000,0.253414
778.593558,0.550000,0.487981
778.627070,0.050000,0.188746
778.660582,0.625000,0.270127
778.694093,0.825000,0.221853
778.727605,0.800000,0.300000
778.761116,0.100000,0.127475
778.794626,0.125000,0.073951
778.828137,0.350000,0.195256
778.861647,0.225000,0.138632
778.895157,0.125000,0.064952
778.928667,0.050000,0.082916
778.962176,0.025000,0.041458
778.995686,-0.075000,0.096014
779.029194,-0.025000,0.054486
779.062703,0.325000,0.339807
779.096212,0.150000,0.286138
779.129720,0.075000,0.124373
779.163228,0.000000,0.127475
779.196735,0.025000,0.124373
779.230243,-0.725000,0.064952
779.263750,0.075000,0.073951
779.297257,-0.075000,0.041458
779.330763,-0.050000,0.108972
779.364269,0.325000,0.143069
779.397776,0.075000,0.089268
779.431281,0.050000,0.075000
779.464787,0.025000,0.119242
779.498292,0.050000,0.043301
779.531797,0.075000,0.064952
779.565302,0.025000,0.096014
779.598806,0.475000,0.170935
779.632311,0.225000,0.163459
779.665814,0.050000,0.075000
779.699318,-0.075000,0.054486
779.732822,0.100000,0.117260
779.766325,0.200000,0.079057
779.799828,0.125000,0.064952
779.833330,0.075000,0.089268
779.866833,-0.200000,0.035355
779.900335,0.125000,0.041458
779.933837,0.100000,0.173205
779.967338,0.050000,0.178536
780.000840,0.125000,0.188331
780.034341,-0.225000,0.096014
780.067841,0.200000,0.154110
780.101342,-0.025000,0.054486
780.134842,0.200000,0.093541
780.168342,-0.150000,0.075000
780.201842,0.125000,0.108253
780.235341,0.225000,0.096014
780.268841,0.000000,0.061237
780.302340,0.025000,0.129301
780.335838,0.400000,0.176777
780.369337,0.025000,0.073951
780.402835,0.000000,0.061237
780.436333,0.300000,0.070711
780.469830,1.425000,0.389511
780.503328,0.900000,0.203101
780.536825,0.925000,0.288043
780.570322,0.825000,0.170935
780.603818,0.500000,0.196850
780.637315,0.350000,0.219374
780.670811,0.125000,0.163459
780.704306,-0.275000,0.041458
780.737802,0.050000,0.075000
780.771297,-0.075000,0.113880
780.804792,0.175000,0.096014
780.838287,0.325000,0.235518
780.871781,-0.000000,0.093541
780.905276,-0.100000,0.165831
780.938770,-0.250000,0.075000
780.972263,0.325000,0.313000
781.005757,0.200000,0.154110
781.039250,-0.075000,0.064952
781.072743,0.225000,0.096014
781.106235,-0.200000,0.086603
781.139728,-0.075000,0.064952
781.173220,0.350000,0.134629
781.206712,0.825000,0.337963
781.240203,-0.100000,0.150000
781.273694,0.125000,0.194856
781.307185,0.025000,0.064952
781.340676,0.125000,0.124373
781.374167,-0.100000,0.000000
781.407657,0.175000,0.143069
781.441147,0.100000,0.242384
781.474636,0.025000,0.064952
781.508126,0.250000,0.134629
781.541615,0.650000,0.235850
781.575104,0.125000,0.054486
781.608593,0.050000,0.075000
781.642081,0.125000,0.096014
781.675569,-0.050000,0.055902
781.709057,0.175000,0.163459
781.742544,0.075000,0.073951
781.776032,-0.075000,0.041458
781.809519,-0.200000,0.035355
781.843006,0.075000,0.041458
781.876492,-0.050000,0.103078
781.909978,0.250000,0.188746
781.943464,0.025000,0.108253
781.976950,0.000000,0.093541
782.010435,0.275000,0.267804
782.043921,0.100000,0.093541
782.077406,0.125000,0.108253
782.110890,0.075000,0.054486
782.144375,-0.000000,0.086603
782.177859,0.150000,0.075000
782.211343,0.025000,0.054486
782.244826,0.425000,0.064952
782.278309,1.050000,0.238485
782.311792,1.000000,0.302076
782.345275,0.725000,0.073951
782.378758,0.675000,0.314990
782.412240,0.425000,0.243349
782.445722,-0.075000,0.041458
782.479204,0.425000,0.129301
782.512685,0.050000,0.256174
782.546166,0.100000,0.100000
782.579647,0.475000,0.240767
782.613128,0.125000,0.041458
782.646608,-0.050000,0.090139
782.680088,0.300000,0.093541
782.713568,-0.125000,0.054486
782.747048,0.075000,0.054486
782.780527,-0.275000,0.041458
782.814006,-0.025000,0.089268
782.847485,-0.225000,0.089268
782.880963,-0.350000,0.090139
782.914442,-0.225000,0.089268
782.947920,-0.075000,0.041458
782.981397,0.400000,0.293684
783.014875,0.175000,0.073951
783.048352,0.200000,0.234521
783.081829,0.025000,0.041458
783.115306,0.000000,0.079057
783.148782,-0.150000,0.025000
783.182258,0.075000,0.216145
783.215734,0.100000,0.117260
783.249209,-0.125000,0.151554
783.282685,0.225000,0.108253
783.316160,0.100000,0.093541
783.349635,0.250000,0.163936
783.383109,-0.200000,0.061237
783.416583,-0.150000,0.143614
783.450057,-0.125000,0.119242
783.483531,-0.200000,0.070711
783.517004,0.150000,0.090139
783.550477,0.050000,0.025000
783.583950,0.300000,0.070711
783.617423,0.275000,0.108253
783.650895,0.200000,0.000000
783.684367,0.000000,0.165831
783.717839,-0.600000,0.106066
783.751311,-0.400000,0.050000
783.784782,-0.050000,0.025000
783.818253,-0.075000,0.064952
783.851724,0.050000,0.075000
783.885194,0.075000,0.073951
783.918665,0.050000,0.108972
783.952134,0.025000,0.021651
783.985604,0.025000,0.073951
784.019074,0.100000,0.050000
784.052543,0.300000,0.173205
784.086012,0.175000,0.108253
784.119480,0.875000,0.235518
784.152948,1.125000,0.397453
784.186416,1.000000,0.209165
784.219884,0.700000,0.337268
784.253352,1.025000,0.248433
784.286819,0.375000,0.506674
784.320286,-0.250000,0.082916
784.353753,0.275000,0.167239
784.387219,0.150000,0.305164
784.420685,0.200000,0.231840
784.454151,-0.100000,0.106066
784.487617,-0.075000,0.081968
784.521082,0.025000,0.147373
784.554547,0.175000,0.113880
784.588012,-0.075000,0.054486
784.621477,-0.075000,0.064952
784.654941,-0.100000,0.035355
784.688405,0.300000,0.061237
784.721869,0.100000,0.061237
784.755332,-0.125000,0.081968
784.788795,0.025000,0.134048
784.822258,0.325000,0.163459
784.855721,-0.075000,0.096014
784.889183,-0.025000,0.073951
784.922646,-0.025000,0.138632
784.956107,0.200000,0.070711
784.989569,-0.225000,0.054486
785.023030,-0.225000,0.054486
785.056491,0.050000,0.279508
785.089952,-0.050000,0.055902
785.123413,-0.050000,0.055902
785.156873,-0.325000,0.124373
785.190333,0.200000,0.154110
785.223792,0.050000,0.025000
785.257252,0.075000,0.113880
785.290711,-0.200000,0.061237
785.324170,-0.125000,0.021651
785.357629,-0.050000,0.082916
785.391087,0.150000,0.055902
785.424545,0.075000,0.096014
785.458003,-0.025000,0.073951
785.491460,-0.100000,0.061237
785.524918,0.150000,0.082916
785.558375,0.050000,0.055902
785.591831,-0.025000,0.041458
785.625288,0.000000,0.162019
785.658744,0.050000,0.055902
785.692200,-0.125000,0.064952
785.725655,0.100000,0.136931
785.759111,0.100000,0.061237
785.792566,0.100000,0.106066
785.826021,0.150000,0.134629
785.859475,-0.300000,0.061237
785.892930,0.075000,0.129301
785.926384,0.150000,0.025000
785.959837,1.050000,0.419076
785.993291,0.950000,0.317214
786.026744,1.550000,0.433734
786.060197,1.150000,0.534439
786.093649,0.300000,0.209165
786.127102,0.050000,0.108972
786.160554,0.025000,0.054486
786.194006,0.550000,0.286138
786.227457,0.050000,0.055902
786.260909,-0.025000,0.064952
786.294360,-0.075000,0.064952
786.327810,0.225000,0.113880
786.361261,0.125000,0.021651
786.394711,-0.100000,0.035355
786.428161,0.200000,0.183712
786.461611,0.375000,0.355976
786.495060,0.100000,0.247487
786.528509,-0.125000,0.041458
786.561958,-0.025000,0.054486
786.595407,0.150000,0.163936
786.628855,0.250000,0.043301
786.662303,-0.125000,0.113880
786.695751,0.100000,0.070711
786.729198,-0.125000,0.041458
786.762645,0.000000,0.035355
786.796092,0.025000,0.064952
786.829539,0.000000,0.061237
786.862985,0.250000,0.391312
786.896431,-0.050000,0.134629
786.929877,0.025000,0.073951
786.963323,0.100000,0.061237
786.996768,0.225000,0.073951
787.030213,-0.100000,0.035355
787.063658,0.050000,0.175000
787.097102,-0.050000,0.075000
787.130547,-0.475000,0.113880
787.163991,-0.050000,0.175000
787.197434,0.200000,0.434454
787.230878,0.400000,0.176777
787.264321,0.275000,0.184983
787.297764,0.075000,0.129301
787.331206,0.050000,0.075000
787.364648,0.050000,0.055902
787.398090,0.225000,0.113880
787.431532,0.200000,0.000000
787.464974,-0.200000,0.061237
787.498415,-0.250000,0.103078
787.531856,-0.075000,0.064952
787.565296,0.000000,0.276134
787.598737,0.150000,0.043301
787.632177,0.250000,0.055902
787.665617,-0.000000,0.093541
787.699056,0.175000,0.134048
787.732496,-0.400000,0.061237
787.765935,0.125000,0.174553
787.799373,0.375000,0.306951
787.832812,1.025000,0.389511
787.866250,1.025000,0.472196
787.899688,1.625000,0.430661
787.933126,1.025000,0.290205
787.966563,0.650000,0.207666
788.000000,0.000000,0.035355
788.033437,0.000000,0.035355
788.066873,0.175000,0.096014
788.100310,0.725000,0.267804
788.133746,0.325000,0.167239
788.167181,0.475000,0.167239
788.200617,0.200000,0.117260
788.234052,0.300000,0.117260
788.267487,-0.175000,0.089268
788.300921,-0.075000,0.021651
788.334356,0.100000,0.176777
788.367790,0.100000,0.061237
788.401224,0.350000,0.363146
788.434657,-0.200000,0.079057
788.468090,-0.175000,0.041458
788.501523,0.125000,0.041458
788.534956,0.025000,0.073951
788.568389,0.200000,0.079057
788.601821,0.050000,0.143614
788.635253,0.450000,0.364863
788.668684,0.400000,0.297909
788.702116,0.075000,0.210283
788.735547,-0.175000,0.054486
788.768977,-0.050000,0.075000
788.802408,0.125000,0.096014
788.835838,-0.075000,0.096014
788.869268,0.075000,0.102317
788.902698,0.050000,0.125000
788.936127,0.075000,0.178098
788.969556,-0.075000,0.102317
789.002985,0.050000,0.090139
789.036414,0.150000,0.055902
789.069842,-0.125000,0.064952
789.103270,0.100000,0.061237
789.136698,0.325000,0.313000
789.170125,0.050000,0.114564
789.203552,0.225000,0.124373
789.236979,0.325000,0.147373
789.270406,-0.150000,0.090139
789.303832,0.475000,0.296595
789.337258,0.450000,0.477624
789.370684,0.200000,0.209165
789.404110,-0.025000,0.021651
789.437535,0.275000,0.073951
789.470960,0.250000,0.152069
789.504385,0.250000,0.160078
789.537809,-0.050000,0.055902
789.571233,0.050000,0.129904
789.604657,0.050000,0.082916
789.638081,-0.150000,0.043301
789.671504,0.575000,0.167239
789.704927,1.275000,0.213234
789.738350,1.500000,0.273861
789.771772,2.250000,0.354436
789.805195,0.375000,0.324760
789.838617,0.300000,0.093541
789.872038,0.100000,0.145774
789.905460,-0.575000,0.163459
789.938881,-0.000000,0.176777
789.972302,-0.175000,0.108253
790.005722,0.225000,0.113880
790.039143,-0.100000,0.106066
790.072563,-0.100000,0.061237
790.105982,-0.050000,0.075000
790.139402,0.200000,0.000000
790.172821,0.125000,0.313000
790.206240,0.050000,0.082916
790.239658,0.100000,0.079057
790.273077,0.050000,0.082916
790.306495,0.175000,0.326678
790.339913,0.125000,0.129301
790.373330,-0.025000,0.143069
790.406747,-0.075000,0.041458
790.440164,0.025000,0.143069
790.473581,0.125000,0.064952
790.506997,-0.075000,0.089268
790.540414,-0.050000,0.043301
790.573829,0.300000,0.158114
790.607245,0.100000,0.061237
790.640660,-0.125000,0.064952
790.674075,0.100000,0.035355
790.707490,-0.100000,0.079057
790.740904,0.325000,0.174553
790.774319,0.625000,0.298695
790.807733,-0.025000,0.073951
790.841146,0.025000,0.064952
790.874560,-0.225000,0.064952
790.907973,0.025000,0.064952
790.941385,0.125000,0.021651
790.974798,0.175000,0.081968
791.008210,0.100000,0.061237
791.041622,-0.050000,0.125000
791.075034,-0.050000,0.055902
791.108445,-0.175000,0.073951
791.141856,0.050000,0.055902
791.175267,0.000000,0.093541
791.208678,0.325000,0.113880
791.242088,0.275000,0.113880
791.275498,0.275000,0.151554
791.308908,0.225000,0.096014
791.342317,0.050000,0.043301
791.375726,0.025000,0.073951
791.409135,0.200000,0.203101
791.442544,-0.325000,0.124373
791.475952,0.050000,0.055902
791.509360,0.750000,0.361421
791.542768,0.900000,0.325960
791.576176,1.750000,0.343693
791.609583,3.450000,0.378319
791.642990,2.175000,0.545865
791.676396,1.775000,0.648436
791.709803,0.625000,0.113880
791.743209,0.100000,0.086603
791.776615,0.125000,0.147373
791.810020,-0.075000,0.054486
791.843425,0.800000,0.318198
791.876830,-0.275000,0.170935
791.910235,0.050000,0.043301
791.943640,-0.125000,0.108253
791.977044,-0.125000,0.096014
792.010448,-0.150000,0.055902
792.043851,0.025000,0.054486
792.077254,0.250000,0.114564
792.110658,-0.025000,0.021651
792.144060,0.075000,0.138632
792.177463,0.175000,0.102317
792.210865,-0.125000,0.113880
792.244267,-0.025000,0.041458
792.277668,0.025000,0.113880
792.311070,0.175000,0.054486
792.344471,0.325000,0.167239
792.377872,-0.075000,0.041458
792.411272,0.050000,0.075000
792.444672,-0.025000,0.041458
792.478072,-0.050000,0.055902
792.511472,-0.100000,0.050000
792.544871,0.300000,0.158114
792.578271,0.400000,0.496236
792.611669,0.225000,0.129301
792.645068,0.350000,0.167705
792.678466,-0.375000,0.041458
792.711864,0.425000,0.198037
792.745262,0.200000,0.262202
792.778659,0.150000,0.125000
792.812056,-0.025000,0.155624
792.845453,0.350000,0.167705
792.878850,-0.100000,0.061237
792.912246,0.175000,0.054486
792.945642,0.200000,0.154110
792.979038,0.100000,0.050000
793.012433,0.100000,0.035355
793.045829,-0.025000,0.054486
793.079223,-0.300000,0.086603
793.112618,-0.100000,0.154110
793.146012,0.200000,0.070711
793.179406,-0.200000,0.122474
793.212800,-0.175000,0.073951
793.246194,-0.075000,0.041458
793.279587,0.250000,0.075000
793.312980,0.275000,0.210283
793.346373,0.050000,0.125000
793.379765,0.550000,0.251247
793.413157,1.650000,0.442295
793.446549,1.450000,0.376663
793.479940,5.050000,0.775000
793.513332,3.325000,0.265460
793.546723,1.350000,0.225000
793.580113,0.300000,0.117260
793.613504,-0.125000,0.089268
793.646894,-0.250000,0.108972
793.680284,0.025000,0.041458
793.713673,-0.200000,0.061237
793.747062,-0.050000,0.103078
793.780451,-0.125000,0.064952
793.813840,0.225000,0.096014
793.847228,0.350000,0.303109
793.880617,-0.125000,0.021651
793.914004,0.175000,0.174553
793.947392,-0.250000,0.075000
793.980779,-0.200000,0.093541
794.014166,-0.025000,0.151554
794.047553,0.150000,0.103078
794.080940,-0.025000,0.155624
794.114326,-0.075000,0.119242
794.147712,0.300000,0.276134
794.181097,-0.100000,0.035355
794.214483,0.300000,0.176777
794.247868,0.100000,0.093541
794.281252,-0.100000,0.061237
794.314637,-0.325000,0.089268
794.348021,0.050000,0.075000
794.381405,-0.150000,0.090139
794.414788,0.025000,0.041458
794.448172,0.300000,0.035355
794.481555,-0.125000,0.081968
794.514938,0.025000,0.119242
794.548320,-0.175000,0.134048
794.581702,-0.025000,0.054486
794.615084,0.100000,0.061237
794.648466,0.075000,0.073951
794.681847,0.325000,0.113880
794.715228,-0.500000,0.093541
794.748609,0.125000,0.347086
794.781990,-0.375000,0.281458
794.815370,0.725000,0.221853
794.848750,0.150000,0.283945
794.882129,-0.100000,0.252488
794.915509,-0.025000,0.021651
794.948888,-0.550000,0.025000
794.982267,0.125000,0.041458
795.015645,-0.050000,0.090139
795.049023,0.050000,0.103078
795.082401,0.050000,0.227761
795.115779,0.025000,0.073951
795.149156,0.075000,0.155624
795.182534,0.400000,0.141421
795.215910,0.200000,0.035355
795.249287,0.350000,0.163936
795.282663,0.750000,0.163936
795.316039,2.925000,0.364649
795.349415,7.700000,1.001873
795.382790,6.050000,0.962094
795.416165,5.250000,0.638847
795.449540,2.925000,0.113880
795.482915,0.850000,0.147902
795.516289,0.300000,0.262202
795.549663,0.000000,0.061237
795.583037,-0.100000,0.100000
795.616410,0.050000,0.090139
795.649783,-0.300000,0.035355
795.683156,-0.025000,0.054486
795.716529,0.000000,0.070711
795.749901,-0.200000,0.086603
795.783273,0.200000,0.231840
795.816645,-0.150000,0.055902
795.850016,0.075000,0.021651
795.883387,0.225000,0.155624
795.916758,-0.050000,0.103078
795.950129,0.425000,0.496708
795.983499,0.150000,0.394493
796.016869,-0.150000,0.090139
796.050239,-0.500000,0.127475
796.083608,0.100000,0.093541
796.116977,0.075000,0.134048
796.150346,-0.475000,0.096014
796.183714,-0.075000,0.096014
796.217083,0.125000,0.124373
796.250451,0.525000,0.628863
796.283818,0.250000,0.167705
796.317186,0.025000,0.194856
796.350553,0.025000,0.041458
796.383920,-0.350000,0.075000
796.417286,0.150000,0.103078
796.450653,0.025000,0.129301
796.484019,0.300000,0.231840
796.517384,-0.000000,0.093541
796.550750,-0.000000,0.106066
796.584115,0.025000,0.124373
796.617480,0.150000,0.192029
796.650844,-0.025000,0.021651
796.684209,0.100000,0.079057
796.717573,-0.150000,0.201556
796.750936,0.225000,0.108253
796.784300,0.250000,0.125000
796.817663,-0.125000,0.064952
796.851026,0.275000,0.194856
796.884388,-0.375000,0.021651
796.917751,-0.050000,0.075000
796.951113,0.050000,0.025000
796.984474,-0.000000,0.079057
797.017836,-0.025000,0.096014
797.051197,-0.100000,0.035355
797.084558,-0.275000,0.021651
797.117918,0.125000,0.041458
797.151279,0.500000,0.176777
797.184639,1.875000,0.502960
797.217998,4.800000,0.543139
797.251358,3.700000,0.407738
797.284717,6.800000,0.220794
797.318076,4.700000,0.979158
797.351434,0.750000,0.328824
797.384793,1.750000,0.381608
797.418151,0.525000,0.235518
797.451508,0.225000,0.073951
797.484866,0.100000,0.093541
797.518223,0.075000,0.041458
797.551580,-0.275000,0.021651
797.584936,0.175000,0.129301
797.618292,0.250000,0.419076
797.651648,-0.050000,0.055902
797.685004,-0.025000,0.081968
797.718360,0.275000,0.073951
797.751715,0.225000,0.054486
797.785069,-0.025000,0.041458
797.818424,-0.050000,0.043301
797.851778,-0.075000,0.054486
797.885132,-0.275000,0.174553
797.918486,0.025000,0.021651
797.951839,-0.075000,0.108253
797.985192,-0.100000,0.093541
798.018545,0.100000,0.079057
798.051898,0.200000,0.127475
798.085250,0.025000,0.064952
798.118602,0.200000,0.209165
798.151954,-0.250000,0.025000
798.185305,-0.150000,0.075000
798.218656,0.100000,0.035355
798.252007,0.050000,0.055902
798.285357,0.225000,0.064952
798.318708,-0.050000,0.182003
798.352057,0.375000,0.170935
798.385407,0.325000,0.155624
798.418756,-0.100000,0.093541
798.452106,0.300000,0.247487
798.485454,0.100000,0.127475
798.518803,0.200000,0.050000
798.552151,-0.100000,0.061237
798.585499,0.300000,0.079057
798.618847,-0.025000,0.096014
798.652194,0.300000,0.262202
798.685541,0.300000,0.093541
798.718888,0.375000,0.245904
798.752234,-0.075000,0.124373
798.785580,0.350000,0.114564
798.818926,0.025000,0.054486
798.852272,-0.175000,0.021651
798.885617,-0.200000,0.035355
798.918962,0.075000,0.119242
798.952307,-0.125000,0.073951
798.985651,0.100000,0.093541
799.018996,0.125000,0.113880
799.052339,0.325000,0.054486
799.085683,2.650000,0.311247
799.119026,5.575000,0.860505
799.152369,8.725000,0.593059
799.185712,11.800000,0.780224
799.219054,6.166667,0.928933
799.252397,1.450000,0.246221
799.285738,0.725000,0.328586
799.319080,-0.075000,0.054486
799.352421,0.225000,0.081968
799.385762,0.325000,0.163459
799.419103,0.000000,0.035355
799.452443,0.100000,0.050000
799.485783,0.000000,0.079057
799.519123,0.000000,0.035355
799.552463,-0.125000,0.041458
799.585802,-0.175000,0.041458
799.619141,0.125000,0.119242
799.652480,-0.300000,0.106066
799.685818,-0.325000,0.054486
799.719156,0.175000,0.054486
799.752494,0.325000,0.073951
799.785831,0.250000,0.195256
799.819169,0.275000,0.096014
799.852506,0.150000,0.248747
799.885842,-0.275000,0.064952
799.919179,-0.075000,0.170935
799.952515,0.325000,0.163459
799.985850,-0.100000,0.035355
800.019186,-0.050000,0.055902
800.052521,-0.075000,0.089268
800.085856,-0.100000,0.061237
800.119191,0.100000,0.162019
800.152525,0.025000,0.138632
800.185859,0.700000,0.247487
800.219193,-0.050000,0.055902
800.252526,0.025000,0.113880
800.285859,0.300000,0.158114
800.319192,0.450000,0.134629
800.352525,0.150000,0.134629
800.385857,0.100000,0.141421
800.419189,0.650000,0.256174
800.452521,0.225000,0.089268
800.485852,0.350000,0.175000
800.519183,-0.125000,0.232849
800.552514,0.475000,0.288043
800.585844,-0.625000,0.230149
800.619175,0.375000,0.129301
800.652505,0.075000,0.089268
800.685834,0.600000,0.322102
800.719164,0.175000,0.073951
800.752493,0.375000,0.096014
800.785821,0.025000,0.054486
800.819150,-0.225000,0.108253
800.852478,-0.150000,0.043301
800.885806,-0.100000,0.106066
800.919134,0.250000,0.103078
800.952461,1.175000,0.406779
800.985788,4.050000,0.689656
801.019115,11.025000,1.337149
801.052441,23.400000,0.612372
801.085767,31.475000,1.170670
801.119093,31.425000,3.466334
801.152419,6.700000,0.709753
801.185744,2.225000,0.702117
801.219069,0.575000,0.501716
801.252394,0.225000,0.184983
801.285718,0.050000,0.129904
801.319042,0.150000,0.160078
801.352366,0.400000,0.247487
801.385690,0.700000,0.220794
801.419013,-0.125000,0.147373
801.452336,0.750000,0.481534
801.485658,-0.425000,0.279229
801.518981,0.950000,0.396074
801.552303,-0.075000,0.073951
801.585625,0.075000,0.138632
801.618946,-0.025000,0.155624
801.652267,-0.400000,0.050000
801.685588,0.100000,0.106066
801.718909,0.025000,0.108253
801.752229,0.325000,0.174553
801.785549,0.075000,0.089268
801.818869,0.275000,0.298695
801.852188,-0.175000,0.081968
801.885507,0.325000,0.147373
801.918826,0.300000,0.187083
801.952145,-0.250000,0.082916
801.985463,-0.225000,0.089268
802.018781,0.200000,0.127475
802.052099,0.150000,0.103078
802.085416,0.150000,0.103078
802.118733,0.150000,0.108972
802.152050,0.125000,0.194856
802.185366,-0.050000,0.043301
802.218683,0.575000,0.341641
802.251999,0.275000,0.155624
802.285314,-0.425000,0.096014
802.318630,0.475000,0.354216
802.351945,0.100000,0.111803
802.385259,0.075000,0.021651
802.418574,0.325000,0.147373
802.451888,0.100000,0.106066
802.485202,0.125000,0.119242
802.518515,0.125000,0.138632
802.551829,0.150000,0.143614
802.585142,0.300000,0.106066
802.618454,0.700000,0.150000
802.651767,0.025000,0.174553
802.685079,-0.525000,0.155624
802.718391,0.025000,0.054486
802.751702,0.050000,0.219374
802.785013,0.225000,0.054486
802.818324,0.325000,0.081968
802.851635,0.525000,0.324760
802.884945,1.500000,0.483477
802.918255,7.225000,0.677657
802.951565,21.700000,1.075291
802.984874,44.325000,0.926266
803.018184,55.033333,1.388494
803.051492,31.100000,1.946471
803.084801,8.300000,0.372492
803.118109,1.125000,0.320887
803.151417,-0.050000,0.167705
803.184725,0.375000,0.096014
803.218032,0.475000,0.108253
803.251339,0.025000,0.064952
803.284646,0.125000,0.198037
803.317953,0.000000,0.093541
803.351259,-0.375000,0.021651
803.384565,-0.150000,0.103078
803.417870,0.025000,0.064952
803.451176,0.475000,0.216145
803.484481,0.100000,0.127475
803.517786,0.275000,0.188331
803.551090,0.250000,0.256174
803.584394,0.700000,0.262202
803.617698,-0.100000,0.070711
803.651002,0.200000,0.035355
803.684305,0.275000,0.354216
803.717608,-0.125000,0.143069
803.750910,-0.200000,0.165831
803.784213,0.275000,0.073951
803.817515,0.050000,0.055902
803.850817,0.025000,0.184983
803.884118,0.400000,0.244949
803.917419,0.375000,0.194856
803.950720,-0.075000,0.096014
803.984021,0.175000,0.124373
804.017321,0.300000,0.154110
804.050621,-0.050000,0.090139
804.083921,0.275000,0.194856
804.117220,-0.100000,0.061237
804.150519,0.175000,0.129301
804.183818,0.475000,0.240767
804.217117,-0.100000,0.106066
804.250415,0.175000,0.134048
804.283713,0.275000,0.147373
804.317011,0.375000,0.276981
804.350308,0.450000,0.213600
804.383605,-0.025000,0.073951
804.416902,0.075000,0.021651
804.450198,0.425000,0.064952
804.483494,0.225000,0.113880
804.516790,0.350000,0.055902
804.550086,-0.150000,0.103078
804.583381,-0.125000,0.073951
804.616676,0.450000,0.283945
804.649971,0.675000,0.096014
804.683265,0.250000,0.225000
804.716559,-0.050000,0.251247
804.749853,0.275000,0.143069
804.783146,0.150000,0.134629
804.816440,2.600000,0.401559
804.849732,13.925000,0.768420
804.883025,40.350000,0.901041
804.916317,65.150000,1.456666
804.949609,92.200000,2.888339
804.982901,51.266667,1.914528
805.016192,12.975000,0.516448
805.049484,2.350000,0.795692
805.082774,-0.150000,0.201556
805.116065,0.275000,0.213234
805.149355,-0.050000,0.043301
805.182645,0.125000,0.143069
805.215935,0.125000,0.081968
805.249224,-0.075000,0.041458
805.282513,0.200000,0.196850
805.315802,0.200000,0.035355
805.349090,0.000000,0.079057
805.382378,0.175000,0.138632
805.415666,0.075000,0.129301
805.448954,0.175000,0.096014
805.482241,-0.150000,0.055902
805.515528,0.325000,0.198037
805.548815,0.400000,0.035355
805.582101,0.225000,0.198037
805.615387,-0.100000,0.050000
805.648673,0.025000,0.064952
805.681958,-0.125000,0.054486
805.715243,0.400000,0.061237
805.748528,0.500000,0.217945
805.781813,0.500000,0.196850
805.815097,0.250000,0.143614
805.848381,0.075000,0.102317
805.881665,-0.075000,0.167239
805.914948,0.125000,0.113880
805.948231,0.225000,0.235518
805.981514,-0.000000,0.196850
806.014796,0.575000,0.073951
806.048079,0.775000,0.167239
806.081360,0.050000,0.129904
806.114642,0.150000,0.279508
806.147923,-0.050000,0.075000
806.181204,0.325000,0.224653
806.214485,-0.150000,0.147902
806.247765,-0.150000,0.103078
806.281046,0.025000,0.102317
806.314325,-0.275000,0.041458
806.347605,0.525000,0.188331
806.380884,-0.375000,0.134048
806.414163,0.000000,0.061237
806.447441,0.325000,0.283670
806.480720,0.425000,0.216145
806.513998,0.250000,0.192029
806.547275,0.300000,0.127475
806.580553,0.350000,0.178536
806.613830,0.400000,0.086603
806.647107,0.400000,0.093541
806.680383,0.850000,0.433734
806.713659,0.850000,0.230489
806.746935,1.425000,0.446339
806.780211,15.050000,0.467039
806.813486,65.866667,0.371371
806.846761,144.975000,3.935793
806.880036,189.150000,4.673529
806.913310,144.025000,3.334924
806.946584,39.325000,1.572568
806.979858,6.400000,0.786607
807.013132,1.225000,0.505439
807.046405,0.075000,0.054486
807.079678,0.300000,0.093541
807.112951,0.225000,0.081968
807.146223,0.025000,0.096014
807.179495,0.000000,0.122474
807.212767,-0.525000,0.108253
807.246038,0.025000,0.163459
807.279309,0.325000,0.089268
807.312580,-0.275000,0.041458
807.345850,-0.025000,0.184983
807.379121,0.350000,0.305164
807.412390,0.275000,0.326678
807.445660,0.425000,0.265460
807.478929,0.150000,0.075000
807.512198,0.325000,0.143069
807.545467,0.100000,0.226385
807.578735,0.250000,0.134629
807.612004,-0.625000,0.184983
807.645271,0.700000,0.291548
807.678539,0.100000,0.176777
807.711806,0.225000,0.089268
807.745073,0.100000,0.306186
807.778340,0.075000,0.188331
807.811606,0.875000,0.460129
807.844872,0.775000,0.399022
807.878138,0.900000,0.647109
807.911403,-0.125000,0.119242
807.944668,0.350000,0.125000
807.977933,0.000000,0.220794
808.011197,0.175000,0.151554
808.044462,0.200000,0.136931
808.077725,0.175000,0.151554
808.110989,0.450000,0.251247
808.144252,0.600000,0.162019
808.177515,0.800000,0.610328
808.210778,0.000000,0.061237
808.244040,0.225000,0.064952
808.277302,0.925000,0.328586
808.310564,0.050000,0.075000
808.343826,0.550000,0.160078
808.377087,0.300000,0.220794
808.410348,0.625000,0.194856
808.443608,0.200000,0.127475
808.476869,0.525000,0.494185
808.510129,0.050000,0.256174
808.543388,0.550000,0.216506
808.576648,0.700000,0.196850
808.609907,0.650000,0.207666
808.643165,1.325000,0.521266
808.676424,1.575000,0.476150
808.709682,8.275000,0.308980
808.742940,63.450000,1.782028
808.776197,201.575000,5.210611
808.809455,317.050000,5.207267
808.842712,344.925000,7.343141
808.875968,168.400000,0.548862
808.909225,27.975000,1.488865
808.942481,4.400000,0.875357
808.975736,0.400000,0.327872
809.008992,1.000000,0.262202
809.042247,0.875000,0.124373
809.075502,0.150000,0.160078
809.108756,-0.200000,0.351781
809.142011,0.650000,0.283945
809.175265,0.250000,0.082916
809.208518,0.375000,0.288043
809.241772,0.275000,0.361205
809.275025,0.550000,0.343693
809.308277,-0.050000,0.055902
809.341530,0.225000,0.021651
809.374782,0.150000,0.082916
809.408034,0.575000,0.204252
809.441285,-0.100000,0.262202
809.474536,-0.325000,0.213234
809.507787,-0.325000,0.184983
809.541038,0.125000,0.096014
809.574288,0.100000,0.183712
809.607538,-0.075000,0.113880
809.640788,0.175000,0.113880
809.674037,0.500000,0.141421
809.707286,0.325000,0.129301
809.740535,0.625000,0.306951
809.773783,0.166667,0.124164
809.807032,0.450000,0.371652
809.840279,-0.075000,0.081968
809.873527,0.075000,0.073951
809.906774,1.300000,0.325960
809.940021,1.425000,0.490376
809.973268,0.675000,0.207289
810.006514,0.225000,0.294480
810.039760,0.250000,0.160078
810.073006,0.400000,0.136931
810.106251,0.550000,0.163936
810.139497,1.150000,0.343693
810.172741,0.425000,0.096014
810.205986,0.350000,0.103078
810.239230,-0.275000,0.143069
810.272474,0.800000,0.106066
810.305718,1.150000,0.317214
810.338961,0.450000,0.598435
810.372204,0.650000,0.480234
810.405447,-0.375000,0.281458
810.438689,0.850000,0.343693
810.471931,0.750000,0.317214
810.505173,0.450000,0.450694
810.538414,0.825000,0.430661
810.571656,0.050000,0.108972
810.604897,1.600000,0.398434
810.638137,2.775000,0.556074
810.671377,20.675000,1.003976
810.704617,149.125000,3.113755
810.737857,482.825000,6.333085
810.771096,693.925000,5.838918
810.804335,709.475000,15.559819
810.837574,311.025000,5.147011
810.870813,39.200000,1.099432
810.904051,8.775000,0.791656
810.937288,1.775000,0.856866
810.970526,0.675000,0.155624
811.003763,0.600000,0.607248
811.037000,0.425000,0.155624
811.070237,1.150000,0.103078
811.103473,0.550000,0.480234
811.136709,-0.250000,0.195256
811.169945,0.050000,0.188746
811.203180,0.675000,0.143069
811.236415,0.500000,0.176777
811.269650,0.800000,0.340955
811.302884,-0.100000,0.061237
811.336119,-0.175000,0.306951
811.369352,0.175000,0.276981
811.402586,0.725000,0.235518
811.435819,1.575000,1.012037
811.469052,0.075000,0.482668
811.502285,0.100000,0.986788
811.535517,-0.150000,0.933742
811.568749,0.625000,0.888380
811.601981,2.000000,0.486056
811.635212,-0.125000,0.201168
811.668443,0.925000,0.430661
811.701674,0.775000,0.260708
811.734905,0.375000,0.359470
811.768135,0.700000,0.407738
811.801365,0.725000,0.263095
811.834594,0.550000,0.082916
811.867824,-0.000000,0.206155
811.901053,0.500000,0.552268
811.934281,-0.175000,0.073951
811.967510,0.625000,0.238157
812.000738,0.350000,0.114564
812.033965,0.333333,0.194722
812.067193,-0.125000,0.054486
812.100420,1.125000,0.424816
812.133647,0.850000,0.225000
812.166873,-0.925000,0.221853
812.200099,0.350000,0.213600
812.233325,0.150000,0.125000
812.266551,0.100000,0.215058
812.299776,0.325000,0.167239
812.333001,0.575000,0.134048
812.366226,0.575000,0.276981
812.399450,-0.050000,0.134629
812.432674,0.025000,0.143069
812.465898,-0.400000,0.079057
812.499121,0.300000,0.176777
812.532345,0.825000,0.400586
812.565567,0.900000,0.169558
812.598790,1.200000,0.491172
812.632012,5.600000,0.535023
812.665234,41.425000,1.420992
812.698456,184.875000,3.516279
812.731677,295.833333,1.398362
812.764898,299.733333,1.886244
812.798119,172.225000,6.569758
812.831339,20.600000,1.195303
812.864559,4.875000,0.634798
812.897779,1.050000,0.227761
812.930998,0.550000,0.207666
812.964217,0.325000,0.188331
812.997436,0.225000,0.167239
813.030655,0.100000,0.061237
813.063873,-0.200000,0.100000
813.097091,0.100000,0.093541
813.130308,-0.400000,0.079057
813.163526,0.125000,0.159589
813.196743,-0.300000,0.000000
813.229959,0.500000,0.154110
813.263176,0.450000,0.328824
813.296392,0.400000,0.127475
813.329607,0.450000,0.381608
813.362823,0.000000,0.070711
813.396038,0.250000,0.216506
813.429253,-0.200000,0.061237
813.462467,0.275000,0.292350
813.495682,0.050000,0.090139
813.528895,-0.050000,0.134629
813.562109,-0.100000,0.035355
813.595322,0.025000,0.129301
813.628535,0.150000,0.025000
813.661748,0.300000,0.187083
813.694960,0.250000,0.147902
813.728172,0.175000,0.181573
813.761384,-0.100000,0.093541
813.794596,-0.150000,0.129904
813.827807,-0.200000,0.154110
813.861017,0.675000,0.378112
813.894228,0.500000,0.462331
813.927438,0.125000,0.054486
813.960648,0.250000,0.175000
813.993858,0.225000,0.108253
814.027067,0.250000,0.043301
814.060276,-0.050000,0.147902
814.093485,-0.175000,0.021651
814.126693,-0.125000,0.163459
814.159901,-0.175000,0.021651
814.193109,-0.625000,0.041458
814.226316,0.125000,0.064952
814.259523,-0.075000,0.021651
814.292730,-0.025000,0.081968
814.325936,0.225000,0.021651
814.359143,-0.075000,0.021651
814.392348,0.275000,0.155624
814.425554,-0.175000,0.102317
814.458759,0.650000,0.235850
814.491964,-0.050000,0.188746
814.525169,0.225000,0.073951
814.558373,0.050000,0.219374
814.591577,0.175000,0.216145
814.624781,0.250000,0.364863
814.657984,0.775000,0.343466
