#{
#    "background_file": "Backgrounds\\\\bg_787.999nm_16bin_197st_244en_10.0s_110g_4x_1_seq.txt",
#    "ccd_image_settings": [
#        1,
#        16,
#        1,
#        1600,
#        197,
#        244
#    ],
#    "ccd_temperature": "-88",
#    "cdRatios": {
#        "mean": 0.9208543479342967,
#        "std": 0.006712929518895366
#    },
#    "center_lambda": 788.0,
#    "comments": "",
#    "dark_region": 0.27571755815508014,
#    "date": "11/17/19 14:19:03PM",
#    "eff_field": 1.5,
#    "exposure": 10.0,
#    "fel_lambda": "15.0",
#    "fel_pol": "H",
#    "fel_pulses": 40,
#    "fel_pyro_cal": "0.017",
#    "fel_reprate": "1.07",
#    "fel_transmission": "1.0",
#    "fel_transmission_fits": {
#        "A": 1.0,
#        "C": 0.0,
#        "Mu": 0.0
#    },
#    "fieldInt": {
#        "mean": 9433.113477272727,
#        "std": 386.5770332384558
#    },
#    "fieldStrength": {
#        "mean": 44.55479545454545,
#        "std": 0.9132891448212264
#    },
#    "fpTime": {
#        "mean": 1.2173691930302137,
#        "std": 0.0759535014289707
#    },
#    "gain": 110,
#    "grating": 3,
#    "images_in_sequence": [
#        "hsg_SpotD_crystal16_a45_HAna121.txt",
#        "hsg_SpotD_crystal16_a45_HAna122.txt",
#        "hsg_SpotD_crystal16_a45_HAna123.txt",
#        "hsg_SpotD_crystal16_a45_HAna124.txt"
#    ],
#    "nir_lambda": "820.9918",
#    "nir_pola": "45",
#    "nir_polg": "0",
#    "nir_power": "100.0",
#    "pulseEnergies": {
#        "mean": 2.055068181818182,
#        "std": 0.09633215018490349
#    },
#    "pyroVoltage": {
#        "mean": 0.1313261873280412,
#        "std": 0.006972352379935703
#    },
#    "rotatorAngle": 292.49999633788167,
#    "sample_Temp": "58",
#    "sample_name": "L001218.C3",
#    "series": "SpotD_16_45",
#    "slits": "60",
#    "spec_step": "",
#    "window_trans": 0.92,
#    "y_max": 2,
#    "y_min": 1
#}
#
#
#
#
#
#
#
#
#
#
#
#
#
#
#
#
#
#
#
#
#
#
#
#
#
#
Wavelength,Signal,error
nm,arb. u.,arb.u.
Wavelength,SpotD_16_45,error
761.200217,0.025000,0.113880
761.233859,-0.000000,0.093541
761.267500,0.175000,0.096014
761.301141,-0.125000,0.124373
761.334781,0.175000,0.108253
761.368422,-0.225000,0.210283
761.402062,-0.100000,0.061237
761.435702,-0.125000,0.073951
761.469342,-0.025000,0.041458
761.502981,0.350000,0.279508
761.536620,0.175000,0.041458
761.570259,-0.025000,0.081968
761.603898,0.075000,0.178098
761.637537,0.600000,0.502494
761.671175,-0.250000,0.075000
761.704813,0.100000,0.079057
761.738451,0.125000,0.096014
761.772088,-0.025000,0.210283
761.805726,-0.150000,0.103078
761.839363,-0.125000,0.089268
761.873000,-0.400000,0.079057
761.906636,-0.150000,0.055902
761.940273,0.125000,0.151554
761.973909,0.150000,0.025000
762.007545,0.175000,0.124373
762.041180,-0.150000,0.201556
762.074816,0.150000,0.129904
762.108451,0.075000,0.041458
762.142086,0.225000,0.129301
762.175720,0.075000,0.119242
762.209355,-0.125000,0.054486
762.242989,0.300000,0.122474
762.276623,0.100000,0.079057
762.310257,-0.075000,0.054486
762.343890,-0.425000,0.021651
762.377524,-0.100000,0.093541
762.411157,0.125000,0.143069
762.444789,0.225000,0.129301
762.478422,0.200000,0.070711
762.512054,0.000000,0.035355
762.545686,0.075000,0.102317
762.579318,0.550000,0.160078
762.612950,0.425000,0.265460
762.646581,0.175000,0.188331
762.680212,0.125000,0.096014
762.713843,-0.025000,0.064952
762.747474,0.175000,0.081968
762.781104,-0.100000,0.106066
762.814734,-0.425000,0.119242
762.848364,-0.300000,0.061237
762.881994,0.100000,0.050000
762.915623,-0.050000,0.082916
762.949252,0.075000,0.129301
762.982881,0.075000,0.064952
763.016510,0.675000,0.490376
763.050139,0.000000,0.231840
763.083767,0.050000,0.055902
763.117395,0.125000,0.021651
763.151023,0.100000,0.079057
763.184650,0.425000,0.041458
763.218277,-0.050000,0.075000
763.251904,-0.100000,0.050000
763.285531,0.350000,0.268095
763.319158,0.200000,0.289396
763.352784,0.300000,0.395285
763.386410,0.600000,0.165831
763.420036,0.633333,0.167083
763.453661,-0.025000,0.198037
763.487287,0.150000,0.178536
763.520912,-0.725000,0.281458
763.554537,0.125000,0.230149
763.588161,-0.175000,0.073951
763.621786,-0.050000,0.103078
763.655410,0.300000,0.206155
763.689034,0.300000,0.433013
763.722657,-0.125000,0.096014
763.756281,0.150000,0.075000
763.789904,-0.100000,0.035355
763.823527,-0.025000,0.064952
763.857150,-0.200000,0.070711
763.890772,0.000000,0.106066
763.924394,0.100000,0.035355
763.958016,0.475000,0.415895
763.991638,0.400000,0.111803
764.025260,0.375000,0.163459
764.058881,0.100000,0.070711
764.092502,-0.175000,0.198037
764.126123,0.125000,0.081968
764.159743,0.050000,0.055902
764.193363,0.100000,0.070711
764.226983,0.200000,0.117260
764.260603,0.050000,0.125000
764.294223,-0.125000,0.089268
764.327842,0.100000,0.079057
764.361461,0.050000,0.043301
764.395080,-0.050000,0.025000
764.428699,-0.150000,0.055902
764.462317,0.150000,0.114564
764.495935,-0.175000,0.073951
764.529553,0.150000,0.025000
764.563170,0.400000,0.145774
764.596788,0.450000,0.160078
764.630405,0.125000,0.113880
764.664022,-0.250000,0.055902
764.697638,0.200000,0.061237
764.731255,0.000000,0.035355
764.764871,0.950000,0.430842
764.798487,0.000000,0.154110
764.832103,0.150000,0.134629
764.865718,0.050000,0.090139
764.899333,-0.075000,0.054486
764.932948,0.200000,0.320156
764.966563,0.075000,0.119242
765.000177,0.275000,0.096014
765.033792,-0.050000,0.043301
765.067406,-0.100000,0.079057
765.101019,-0.050000,0.090139
765.134633,0.450000,0.414578
765.168246,-0.000000,0.079057
765.201859,0.025000,0.021651
765.235472,0.150000,0.090139
765.269084,0.400000,0.226385
765.302697,-0.050000,0.160078
765.336309,0.250000,0.090139
765.369920,0.525000,0.368061
765.403532,-0.150000,0.055902
765.437143,-0.225000,0.089268
765.470754,0.050000,0.025000
765.504365,0.075000,0.041458
765.537976,0.350000,0.147902
765.571586,-0.225000,0.041458
765.605196,-0.075000,0.119242
765.638806,0.200000,0.266927
765.672416,0.125000,0.147373
765.706025,0.275000,0.210283
765.739634,0.600000,0.289396
765.773243,0.375000,0.213234
765.806851,0.375000,0.216145
765.840460,0.075000,0.073951
765.874068,0.025000,0.064952
765.907676,0.000000,0.150000
765.941284,0.150000,0.025000
765.974891,0.275000,0.207289
766.008498,0.050000,0.114564
766.042105,-0.075000,0.041458
766.075712,-0.200000,0.079057
766.109318,-0.350000,0.055902
766.142924,-0.050000,0.082916
766.176530,-0.300000,0.297909
766.210136,-0.250000,0.114564
766.243741,0.100000,0.035355
766.277347,-0.150000,0.090139
766.310951,-0.150000,0.075000
766.344556,0.175000,0.064952
766.378161,0.150000,0.055902
766.411765,-0.150000,0.075000
766.445369,-0.200000,0.127475
766.478973,-0.200000,0.061237
766.512576,0.000000,0.050000
766.546179,0.050000,0.114564
766.579782,0.100000,0.150000
766.613385,-0.050000,0.082916
766.646988,0.100000,0.136931
766.680590,0.425000,0.279229
766.714192,0.100000,0.093541
766.747794,-0.100000,0.035355
766.781395,0.300000,0.079057
766.814996,-0.175000,0.081968
766.848597,0.150000,0.248747
766.882198,0.050000,0.114564
766.915799,0.125000,0.054486
766.949399,0.200000,0.176777
766.982999,-0.075000,0.073951
767.016599,-0.150000,0.055902
767.050198,-0.000000,0.093541
767.083798,-0.050000,0.055902
767.117397,0.075000,0.073951
767.150996,0.150000,0.134629
767.184594,-0.150000,0.125000
767.218193,-0.200000,0.035355
767.251791,0.025000,0.143069
767.285389,-0.075000,0.119242
767.318986,-0.100000,0.079057
767.352583,0.150000,0.090139
767.386181,-0.050000,0.160078
767.419777,0.025000,0.147373
767.453374,0.075000,0.054486
767.486970,-0.300000,0.035355
767.520567,0.175000,0.041458
767.554162,-0.050000,0.043301
767.587758,0.300000,0.150000
767.621353,0.375000,0.216145
767.654949,0.050000,0.103078
767.688543,0.450000,0.147902
767.722138,0.200000,0.111803
767.755732,0.350000,0.055902
767.789327,0.000000,0.061237
767.822921,-0.250000,0.108972
767.856514,-0.275000,0.021651
767.890108,0.175000,0.054486
767.923701,0.150000,0.160078
767.957294,0.100000,0.070711
767.990886,0.275000,0.054486
768.024479,-0.000000,0.093541
768.058071,0.175000,0.089268
768.091663,-0.175000,0.054486
768.125255,0.150000,0.082916
768.158846,0.325000,0.155624
768.192437,-0.050000,0.114564
768.226028,0.075000,0.240767
768.259619,0.100000,0.070711
768.293209,0.075000,0.151554
768.326799,0.425000,0.341641
768.360389,-0.100000,0.035355
768.393979,0.050000,0.055902
768.427568,0.175000,0.064952
768.461158,-0.075000,0.081968
768.494747,0.025000,0.188331
768.528335,0.025000,0.089268
768.561924,0.150000,0.055902
768.595512,0.075000,0.102317
768.629100,0.350000,0.246221
768.662688,0.225000,0.258300
768.696275,-0.175000,0.041458
768.729862,0.025000,0.174553
768.763449,-0.075000,0.054486
768.797036,0.025000,0.124373
768.830623,0.375000,0.163459
768.864209,0.025000,0.081968
768.897795,0.175000,0.134048
768.931381,0.275000,0.240767
768.964966,0.125000,0.201168
768.998551,0.325000,0.108253
769.032136,-0.125000,0.102317
769.065721,0.300000,0.035355
769.099305,0.025000,0.147373
769.132890,-0.025000,0.184983
769.166474,0.125000,0.021651
769.200057,-0.050000,0.103078
769.233641,0.100000,0.145774
769.267224,0.175000,0.216145
769.300807,-0.425000,0.021651
769.334390,-0.200000,0.150000
769.367972,0.350000,0.125000
769.401555,0.050000,0.082916
769.435137,-0.250000,0.075000
769.468718,0.175000,0.073951
769.502300,0.200000,0.136931
769.535881,-0.050000,0.258602
769.569462,-0.375000,0.081968
769.603043,0.000000,0.061237
769.636623,0.150000,0.075000
769.670204,0.350000,0.114564
769.703784,0.100000,0.061237
769.737364,0.175000,0.081968
769.770943,0.375000,0.181573
769.804522,0.200000,0.406202
769.838101,0.025000,0.204252
769.871680,-0.125000,0.054486
769.905259,-0.025000,0.221853
769.938837,0.050000,0.055902
769.972415,0.025000,0.064952
770.005993,-0.025000,0.096014
770.039570,0.325000,0.314990
770.073147,0.225000,0.174553
770.106724,0.025000,0.054486
770.140301,0.575000,0.330483
770.173878,0.075000,0.113880
770.207454,0.125000,0.143069
770.241030,0.100000,0.093541
770.274606,0.275000,0.108253
770.308181,0.425000,0.265460
770.341757,0.200000,0.269258
770.375332,0.100000,0.100000
770.408906,0.250000,0.103078
770.442481,-0.275000,0.113880
770.476055,-0.125000,0.124373
770.509629,0.050000,0.082916
770.543203,-0.050000,0.025000
770.576776,0.150000,0.125000
770.610350,0.225000,0.054486
770.643923,0.125000,0.119242
770.677495,0.050000,0.025000
770.711068,0.050000,0.090139
770.744640,0.725000,0.449131
770.778212,-0.000000,0.093541
770.811784,0.300000,0.209165
770.845356,0.150000,0.201556
770.878927,0.175000,0.041458
770.912498,0.050000,0.055902
770.946069,0.025000,0.113880
770.979639,-0.200000,0.000000
771.013209,0.425000,0.147373
771.046779,-0.525000,0.021651
771.080349,-0.100000,0.061237
771.113919,0.225000,0.138632
771.147488,0.475000,0.194856
771.181057,0.025000,0.064952
771.214626,-0.075000,0.064952
771.248194,-0.050000,0.055902
771.281762,-0.100000,0.070711
771.315330,-0.025000,0.073951
771.348898,0.275000,0.155624
771.382465,-0.200000,0.141421
771.416033,0.050000,0.216506
771.449600,0.425000,0.096014
771.483166,0.075000,0.089268
771.516733,0.400000,0.220794
771.550299,0.300000,0.136931
771.583865,-0.075000,0.073951
771.617431,-0.050000,0.055902
771.650996,0.200000,0.035355
771.684562,0.050000,0.090139
771.718127,-0.050000,0.075000
771.751691,0.075000,0.102317
771.785256,0.200000,0.150000
771.818820,0.125000,0.204252
771.852384,0.200000,0.093541
771.885948,0.050000,0.103078
771.919511,-0.125000,0.064952
771.953074,0.175000,0.081968
771.986637,0.000000,0.079057
772.020200,-0.025000,0.124373
772.053762,0.300000,0.093541
772.087325,-0.025000,0.041458
772.120887,-0.225000,0.124373
772.154448,0.150000,0.075000
772.188010,0.000000,0.122474
772.221571,-0.075000,0.073951
772.255132,0.050000,0.103078
772.288692,-0.075000,0.081968
772.322253,0.050000,0.103078
772.355813,0.250000,0.192029
772.389373,-0.050000,0.103078
772.422933,-0.050000,0.303109
772.456492,0.250000,0.246221
772.490051,0.275000,0.151554
772.523610,0.000000,0.093541
772.557169,0.275000,0.178098
772.590727,-0.000000,0.079057
772.624285,0.050000,0.075000
772.657843,-0.000000,0.093541
772.691401,-0.225000,0.054486
772.724958,-0.050000,0.025000
772.758515,0.250000,0.134629
772.792072,0.000000,0.035355
772.825629,-0.050000,0.075000
772.859185,0.200000,0.111803
772.892741,-0.200000,0.061237
772.926297,0.325000,0.255869
772.959853,0.025000,0.113880
772.993408,-0.450000,0.143614
773.026963,0.425000,0.572686
773.060518,-0.150000,0.055902
773.094073,-0.125000,0.054486
773.127627,0.150000,0.090139
773.161181,0.275000,0.124373
773.194735,0.350000,0.175000
773.228289,0.200000,0.141421
773.261842,0.225000,0.227418
773.295395,0.625000,0.288043
773.328948,0.225000,0.143069
773.362500,0.400000,0.229129
773.396053,-0.100000,0.050000
773.429605,0.175000,0.054486
773.463157,0.050000,0.082916
773.496708,0.475000,0.163459
773.530260,-0.250000,0.055902
773.563811,0.125000,0.276981
773.597361,0.200000,0.237171
773.630912,0.050000,0.055902
773.664462,0.525000,0.204252
773.698012,0.375000,0.443530
773.731562,0.200000,0.154110
773.765111,-0.075000,0.096014
773.798661,0.200000,0.136931
773.832210,0.125000,0.073951
773.865758,0.050000,0.055902
773.899307,0.125000,0.073951
773.932855,-0.000000,0.106066
773.966403,0.125000,0.178098
773.999951,0.075000,0.041458
774.033498,-0.075000,0.129301
774.067046,0.150000,0.075000
774.100593,0.150000,0.103078
774.134139,0.150000,0.055902
774.167686,0.200000,0.154110
774.201232,0.100000,0.061237
774.234778,0.250000,0.152069
774.268324,-0.075000,0.054486
774.301869,0.075000,0.054486
774.335414,-0.100000,0.079057
774.368959,0.175000,0.102317
774.402504,-0.050000,0.134629
774.436048,-0.275000,0.041458
774.469592,0.150000,0.055902
774.503136,0.425000,0.283670
774.536680,0.050000,0.043301
774.570223,0.225000,0.181573
774.603766,0.325000,0.081968
774.637309,0.350000,0.160078
774.670852,0.125000,0.096014
774.704394,0.300000,0.289396
774.737936,0.150000,0.167705
774.771478,-0.275000,0.143069
774.805020,0.075000,0.096014
774.838561,0.025000,0.041458
774.872102,0.475000,0.163459
774.905643,0.400000,0.234521
774.939183,0.325000,0.143069
774.972724,0.075000,0.089268
775.006264,-0.050000,0.134629
775.039804,0.450000,0.175000
775.073343,-0.175000,0.073951
775.106882,0.350000,0.235850
775.140421,0.450000,0.134629
775.173960,0.075000,0.159589
775.207499,-0.300000,0.070711
775.241037,-0.125000,0.054486
775.274575,-0.100000,0.061237
775.308113,0.025000,0.170935
775.341650,0.150000,0.075000
775.375187,0.375000,0.163459
775.408724,0.150000,0.219374
775.442261,-0.050000,0.090139
775.475798,-0.075000,0.188331
775.509334,0.125000,0.054486
775.542870,-0.100000,0.061237
775.576405,-0.075000,0.143069
775.609941,0.300000,0.122474
775.643476,0.325000,0.204252
775.677011,-0.100000,0.234521
775.710546,0.475000,0.296595
775.744080,0.350000,0.246221
775.777614,0.075000,0.073951
775.811148,0.000000,0.035355
775.844682,-0.150000,0.025000
775.878215,-0.250000,0.025000
775.911748,-0.075000,0.054486
775.945281,0.250000,0.219374
775.978814,-0.125000,0.129301
776.012346,-0.050000,0.075000
776.045878,0.000000,0.079057
776.079410,0.125000,0.089268
776.112941,0.000000,0.050000
776.146473,0.000000,0.061237
776.180004,0.100000,0.154110
776.213535,0.275000,0.073951
776.247065,0.275000,0.147373
776.280595,0.225000,0.155624
776.314125,0.125000,0.081968
776.347655,-0.125000,0.108253
776.381185,-0.150000,0.075000
776.414714,0.250000,0.075000
776.448243,-0.025000,0.073951
776.481772,-0.075000,0.041458
776.515300,0.050000,0.055902
776.548828,-0.200000,0.061237
776.582356,-0.150000,0.055902
776.615884,0.225000,0.263095
776.649411,0.000000,0.061237
776.682938,0.050000,0.025000
776.716465,0.075000,0.054486
776.749992,0.075000,0.041458
776.783518,0.075000,0.041458
776.817044,0.450000,0.182003
776.850570,0.625000,0.253414
776.884096,0.475000,0.167239
776.917621,0.125000,0.113880
776.951146,0.625000,0.601431
776.984671,-0.425000,0.089268
777.018196,-0.025000,0.064952
777.051720,0.125000,0.073951
777.085244,0.025000,0.054486
777.118768,-0.625000,0.054486
777.152292,0.125000,0.041458
777.185815,0.050000,0.055902
777.219338,0.075000,0.143069
777.252861,-0.225000,0.041458
777.286383,0.050000,0.055902
777.319905,0.075000,0.119242
777.353427,0.125000,0.041458
777.386949,0.250000,0.025000
777.420471,0.050000,0.055902
777.453992,0.200000,0.127475
777.487513,0.150000,0.090139
777.521033,-0.375000,0.064952
777.554554,-0.325000,0.041458
777.588074,0.350000,0.090139
777.621594,0.400000,0.242384
777.655114,0.200000,0.079057
777.688633,0.350000,0.195256
777.722152,0.100000,0.035355
777.755671,0.000000,0.000000
777.789190,-0.225000,0.054486
777.822708,0.075000,0.151554
777.856226,0.275000,0.089268
777.889744,0.075000,0.096014
777.923261,0.125000,0.021651
777.956779,0.275000,0.194856
777.990296,0.100000,0.061237
778.023812,0.175000,0.163459
778.057329,0.050000,0.090139
778.090845,0.175000,0.096014
778.124361,0.050000,0.025000
778.157877,-0.025000,0.073951
778.191392,0.150000,0.207666
778.224908,0.225000,0.230149
778.258423,0.225000,0.138632
778.291937,-0.050000,0.103078
778.325452,0.050000,0.043301
778.358966,-0.125000,0.096014
778.392480,0.025000,0.054486
778.425993,0.000000,0.093541
778.459507,0.050000,0.025000
778.493020,0.000000,0.035355
778.526533,0.000000,0.035355
778.560045,-0.100000,0.061237
778.593558,-0.250000,0.025000
778.627070,0.525000,0.391112
778.660582,0.800000,0.262202
778.694093,0.700000,0.293684
778.727605,0.625000,0.430661
778.761116,0.200000,0.070711
778.794626,0.625000,0.399022
778.828137,0.025000,0.081968
778.861647,-0.025000,0.064952
778.895157,0.150000,0.075000
778.928667,0.100000,0.035355
778.962176,0.325000,0.129301
778.995686,0.125000,0.073951
779.029194,0.200000,0.061237
779.062703,0.300000,0.180278
779.096212,0.350000,0.256174
779.129720,0.075000,0.096014
779.163228,-0.325000,0.073951
779.196735,0.100000,0.079057
779.230243,-0.550000,0.055902
779.263750,0.225000,0.224653
779.297257,0.100000,0.173205
779.330763,-0.025000,0.096014
779.364269,0.075000,0.054486
779.397776,0.200000,0.035355
779.431281,0.725000,0.600390
779.464787,-0.050000,0.043301
779.498292,0.125000,0.143069
779.531797,0.200000,0.079057
779.565302,0.025000,0.073951
779.598806,0.250000,0.114564
779.632311,0.025000,0.054486
779.665814,0.075000,0.021651
779.699318,0.000000,0.111803
779.732822,0.150000,0.055902
779.766325,0.100000,0.111803
779.799828,0.025000,0.064952
779.833330,-0.025000,0.163459
779.866833,-0.125000,0.021651
779.900335,0.375000,0.096014
779.933837,0.175000,0.041458
779.967338,0.150000,0.090139
780.000840,0.300000,0.136931
780.034341,-0.250000,0.075000
780.067841,0.300000,0.183712
780.101342,0.075000,0.081968
780.134842,0.050000,0.025000
780.168342,-0.150000,0.134629
780.201842,0.200000,0.169558
780.235341,0.225000,0.073951
780.268841,0.000000,0.061237
780.302340,0.075000,0.163459
780.335838,0.375000,0.245904
780.369337,-0.025000,0.054486
780.402835,0.300000,0.187083
780.436333,0.425000,0.178098
780.469830,0.800000,0.295804
780.503328,0.166667,0.163299
780.536825,1.675000,0.420379
780.570322,0.700000,0.395285
780.603818,0.850000,0.400780
780.637315,0.275000,0.064952
780.670811,-0.100000,0.035355
780.704306,-0.100000,0.050000
780.737802,0.100000,0.035355
780.771297,0.050000,0.043301
780.804792,0.100000,0.035355
780.838287,-0.000000,0.079057
780.871781,-0.100000,0.122474
780.905276,-0.250000,0.090139
780.938770,-0.200000,0.136931
780.972263,-0.100000,0.061237
781.005757,0.075000,0.096014
781.039250,0.050000,0.082916
781.072743,0.275000,0.073951
781.106235,0.175000,0.129301
781.139728,-0.075000,0.021651
781.173220,0.150000,0.043301
781.206712,0.275000,0.119242
781.240203,0.325000,0.170935
781.273694,0.300000,0.136931
781.307185,0.300000,0.150000
781.340676,0.450000,0.336341
781.374167,0.025000,0.021651
781.407657,0.350000,0.075000
781.441147,-0.050000,0.075000
781.474636,0.100000,0.035355
781.508126,0.025000,0.174553
781.541615,0.525000,0.267804
781.575104,-0.075000,0.041458
781.608593,0.025000,0.054486
781.642081,-0.100000,0.050000
781.675569,-0.050000,0.055902
781.709057,-0.025000,0.021651
781.742544,0.125000,0.041458
781.776032,-0.025000,0.147373
781.809519,-0.050000,0.043301
781.843006,0.300000,0.183712
781.876492,0.200000,0.106066
781.909978,0.300000,0.127475
781.943464,0.325000,0.041458
781.976950,-0.025000,0.021651
782.010435,0.150000,0.075000
782.043921,0.200000,0.061237
782.077406,0.025000,0.041458
782.110890,0.275000,0.096014
782.144375,-0.175000,0.041458
782.177859,0.175000,0.054486
782.211343,-0.125000,0.089268
782.244826,0.375000,0.113880
782.278309,0.925000,0.357727
782.311792,1.375000,0.447737
782.345275,2.000000,0.523211
782.378758,1.500000,0.351781
782.412240,0.325000,0.253414
782.445722,0.050000,0.114564
782.479204,0.175000,0.073951
782.512685,-0.300000,0.035355
782.546166,-0.050000,0.075000
782.579647,0.075000,0.167239
782.613128,-0.125000,0.041458
782.646608,-0.075000,0.021651
782.680088,0.225000,0.113880
782.713568,-0.200000,0.050000
782.747048,0.200000,0.162019
782.780527,-0.125000,0.102317
782.814006,0.100000,0.070711
782.847485,-0.075000,0.113880
782.880963,-0.375000,0.021651
782.914442,-0.150000,0.090139
782.947920,-0.025000,0.064952
782.981397,-0.025000,0.041458
783.014875,0.250000,0.055902
783.048352,0.250000,0.090139
783.081829,0.000000,0.079057
783.115306,0.175000,0.096014
783.148782,0.275000,0.361205
783.182258,-0.325000,0.102317
783.215734,0.025000,0.073951
783.249209,-0.275000,0.108253
783.282685,0.050000,0.055902
783.316160,0.175000,0.054486
783.349635,0.275000,0.096014
783.383109,-0.375000,0.041458
783.416583,-0.150000,0.043301
783.450057,0.100000,0.117260
783.483531,0.025000,0.108253
783.517004,0.125000,0.089268
783.550477,0.250000,0.175000
783.583950,0.200000,0.093541
783.617423,0.400000,0.035355
783.650895,0.150000,0.114564
783.684367,0.000000,0.079057
783.717839,-0.700000,0.035355
783.751311,-0.200000,0.070711
783.784782,0.125000,0.089268
783.818253,0.050000,0.160078
783.851724,0.050000,0.108972
783.885194,0.425000,0.224653
783.918665,0.175000,0.102317
783.952134,0.175000,0.041458
783.985604,0.175000,0.054486
784.019074,0.350000,0.201556
784.052543,0.375000,0.248433
784.086012,0.375000,0.330483
784.119480,1.675000,0.460129
784.152948,2.750000,0.436606
784.186416,2.200000,0.454148
784.219884,1.300000,0.539676
784.253352,1.350000,0.258602
784.286819,0.050000,0.055902
784.320286,0.025000,0.096014
784.353753,0.100000,0.100000
784.387219,0.125000,0.041458
784.420685,0.125000,0.089268
784.454151,0.275000,0.167239
784.487617,-0.275000,0.073951
784.521082,0.150000,0.160078
784.554547,0.200000,0.070711
784.588012,0.050000,0.082916
784.621477,0.100000,0.079057
784.654941,0.400000,0.093541
784.688405,0.575000,0.213234
784.721869,0.125000,0.096014
784.755332,0.025000,0.054486
784.788795,0.025000,0.073951
784.822258,0.300000,0.154110
784.855721,0.225000,0.073951
784.889183,0.050000,0.082916
784.922646,0.050000,0.143614
784.956107,0.275000,0.210283
784.989569,0.125000,0.174553
785.023030,-0.150000,0.129904
785.056491,0.100000,0.079057
785.089952,-0.025000,0.096014
785.123413,0.000000,0.035355
785.156873,-0.350000,0.055902
785.190333,0.150000,0.025000
785.223792,0.350000,0.125000
785.257252,0.100000,0.035355
785.290711,0.025000,0.073951
785.324170,-0.125000,0.041458
785.357629,-0.050000,0.108972
785.391087,0.225000,0.113880
785.424545,0.025000,0.041458
785.458003,0.175000,0.041458
785.491460,-0.000000,0.079057
785.524918,0.275000,0.041458
785.558375,0.125000,0.054486
785.591831,0.275000,0.267804
785.625288,-0.050000,0.043301
785.658744,0.200000,0.061237
785.692200,-0.100000,0.035355
785.725655,0.325000,0.181573
785.759111,0.200000,0.093541
785.792566,-0.175000,0.073951
785.826021,0.175000,0.143069
785.859475,-0.200000,0.136931
785.892930,-0.050000,0.055902
785.926384,0.375000,0.270127
785.959837,1.200000,0.437321
785.993291,1.500000,0.266927
786.026744,1.850000,0.522614
786.060197,1.150000,0.328824
786.093649,1.250000,0.391312
786.127102,0.375000,0.320887
786.160554,-0.025000,0.096014
786.194006,0.375000,0.272431
786.227457,0.075000,0.041458
786.260909,0.175000,0.102317
786.294360,0.200000,0.122474
786.327810,-0.175000,0.064952
786.361261,0.150000,0.108972
786.394711,-0.050000,0.025000
786.428161,-0.075000,0.021651
786.461611,0.250000,0.090139
786.495060,-0.025000,0.041458
786.528509,0.075000,0.096014
786.561958,0.175000,0.096014
786.595407,0.125000,0.073951
786.628855,0.100000,0.093541
786.662303,-0.225000,0.102317
786.695751,0.000000,0.079057
786.729198,0.000000,0.061237
786.762645,0.050000,0.025000
786.796092,-0.075000,0.054486
786.829539,0.375000,0.108253
786.862985,-0.325000,0.041458
786.896431,-0.100000,0.061237
786.929877,0.100000,0.106066
786.963323,0.325000,0.373120
786.996768,0.050000,0.025000
787.030213,0.075000,0.108253
787.063658,-0.175000,0.041458
787.097102,-0.025000,0.096014
787.130547,-0.400000,0.035355
787.163991,-0.200000,0.035355
787.197434,-0.325000,0.073951
787.230878,0.250000,0.025000
787.264321,0.450000,0.256174
787.297764,-0.175000,0.054486
787.331206,0.100000,0.070711
787.364648,0.200000,0.050000
787.398090,0.350000,0.188746
787.431532,0.050000,0.055902
787.464974,0.000000,0.035355
787.498415,-0.225000,0.270127
787.531856,-0.075000,0.081968
787.565296,-0.300000,0.035355
787.598737,0.750000,0.296859
787.632177,0.825000,0.427748
787.665617,-0.075000,0.041458
787.699056,0.025000,0.108253
787.732496,-0.150000,0.075000
787.765935,0.200000,0.111803
787.799373,0.875000,0.454663
787.832812,2.850000,0.419076
787.866250,2.125000,0.531948
787.899688,2.525000,0.579197
787.933126,0.950000,0.343693
787.966563,0.800000,0.302076
788.000000,0.200000,0.183712
788.033437,0.200000,0.145774
788.066873,0.325000,0.276981
788.100310,0.025000,0.041458
788.133746,0.075000,0.064952
788.167181,0.075000,0.041458
788.200617,0.100000,0.035355
788.234052,0.075000,0.041458
788.267487,-0.050000,0.082916
788.300921,0.275000,0.248433
788.334356,0.100000,0.093541
788.367790,0.125000,0.089268
788.401224,0.300000,0.061237
788.434657,-0.100000,0.050000
788.468090,-0.125000,0.073951
788.501523,0.350000,0.188746
788.534956,0.050000,0.055902
788.568389,0.425000,0.163459
788.601821,-0.025000,0.041458
788.635253,0.275000,0.181573
788.668684,0.375000,0.170935
788.702116,0.075000,0.096014
788.735547,0.025000,0.167239
788.768977,0.050000,0.055902
788.802408,0.675000,0.253414
788.835838,0.200000,0.150000
788.869268,0.375000,0.210283
788.902698,0.175000,0.054486
788.936127,-0.150000,0.025000
788.969556,-0.050000,0.075000
789.002985,0.125000,0.041458
789.036414,0.125000,0.064952
789.069842,-0.050000,0.025000
789.103270,0.250000,0.075000
789.136698,0.325000,0.138632
789.170125,0.050000,0.082916
789.203552,0.000000,0.079057
789.236979,0.250000,0.055902
789.270406,-0.100000,0.061237
789.303832,-0.025000,0.064952
789.337258,0.150000,0.188746
789.370684,0.175000,0.054486
789.404110,-0.150000,0.025000
789.437535,0.425000,0.155624
789.470960,0.075000,0.041458
789.504385,0.175000,0.134048
789.537809,0.075000,0.054486
789.571233,0.075000,0.113880
789.604657,0.075000,0.096014
789.638081,0.150000,0.134629
789.671504,2.300000,0.589491
789.704927,2.750000,0.571730
789.738350,3.550000,0.350892
789.771772,2.850000,0.292617
789.805195,2.100000,0.769740
789.838617,0.650000,0.103078
789.872038,0.325000,0.224653
789.905460,-0.650000,0.108972
789.938881,0.300000,0.127475
789.972302,-0.200000,0.035355
790.005722,0.000000,0.035355
790.039143,0.150000,0.279508
790.072563,0.475000,0.442118
790.105982,0.375000,0.207289
790.139402,0.200000,0.050000
790.172821,0.125000,0.283670
790.206240,0.250000,0.167705
790.239658,0.175000,0.129301
790.273077,0.225000,0.021651
790.306495,-0.175000,0.073951
790.339913,0.100000,0.127475
790.373330,-0.125000,0.041458
790.406747,0.050000,0.090139
790.440164,-0.050000,0.055902
790.473581,0.125000,0.073951
790.506997,-0.100000,0.035355
790.540414,0.325000,0.143069
790.573829,0.250000,0.235850
790.607245,0.225000,0.113880
790.640660,0.100000,0.079057
790.674075,0.175000,0.073951
790.707490,0.025000,0.089268
790.740904,0.325000,0.096014
790.774319,-0.025000,0.054486
790.807733,-0.075000,0.041458
790.841146,0.225000,0.167239
790.874560,-0.275000,0.054486
790.907973,0.200000,0.061237
790.941385,0.275000,0.041458
790.974798,-0.075000,0.073951
791.008210,0.050000,0.025000
791.041622,-0.150000,0.082916
791.075034,0.250000,0.055902
791.108445,-0.125000,0.089268
791.141856,0.075000,0.054486
791.175267,0.125000,0.073951
791.208678,0.275000,0.102317
791.242088,0.150000,0.103078
791.275498,0.025000,0.138632
791.308908,0.050000,0.055902
791.342317,0.025000,0.021651
791.375726,0.050000,0.055902
791.409135,0.150000,0.043301
791.442544,-0.400000,0.093541
791.475952,0.350000,0.055902
791.509360,0.650000,0.394493
791.542768,1.825000,0.661792
791.576176,5.750000,0.515388
791.609583,7.775000,0.674884
791.642990,6.800000,0.183712
791.676396,1.875000,0.616821
791.709803,0.525000,0.073951
791.743209,0.200000,0.127475
791.776615,0.075000,0.102317
791.810020,0.175000,0.134048
791.843425,0.250000,0.178536
791.876830,-0.525000,0.108253
791.910235,0.275000,0.054486
791.943640,0.050000,0.134629
791.977044,-0.025000,0.054486
792.010448,0.100000,0.122474
792.043851,0.000000,0.035355
792.077254,0.175000,0.255869
792.110658,0.050000,0.075000
792.144060,0.025000,0.041458
792.177463,-0.050000,0.134629
792.210865,-0.050000,0.082916
792.244267,0.250000,0.075000
792.277668,0.000000,0.061237
792.311070,0.025000,0.064952
792.344471,0.250000,0.075000
792.377872,0.150000,0.075000
792.411272,0.050000,0.082916
792.444672,0.125000,0.113880
792.478072,0.150000,0.082916
792.511472,-0.025000,0.041458
792.544871,0.200000,0.000000
792.578271,0.000000,0.061237
792.611669,0.175000,0.134048
792.645068,0.075000,0.089268
792.678466,0.200000,0.320156
792.711864,0.100000,0.050000
792.745262,-0.175000,0.054486
792.778659,-0.175000,0.073951
792.812056,0.125000,0.021651
792.845453,0.100000,0.061237
792.878850,0.050000,0.125000
792.912246,0.050000,0.075000
792.945642,0.275000,0.181573
792.979038,0.100000,0.061237
793.012433,0.100000,0.061237
793.045829,0.175000,0.188331
793.079223,-0.375000,0.041458
793.112618,-0.175000,0.064952
793.146012,0.525000,0.167239
793.179406,-0.175000,0.054486
793.212800,-0.150000,0.129904
793.246194,0.275000,0.119242
793.279587,0.375000,0.198037
793.312980,0.575000,0.224653
793.346373,0.300000,0.437321
793.379765,0.300000,0.154110
793.413157,1.250000,0.201556
793.446549,3.725000,0.394295
793.479940,7.900000,0.176777
793.513332,8.250000,0.675000
793.546723,3.675000,1.048436
793.580113,1.350000,0.340037
793.613504,0.075000,0.081968
793.646894,-0.175000,0.096014
793.680284,0.100000,0.035355
793.713673,-0.100000,0.050000
793.747062,0.075000,0.054486
793.780451,-0.075000,0.041458
793.813840,0.425000,0.129301
793.847228,0.050000,0.090139
793.880617,0.150000,0.055902
793.914004,0.275000,0.134048
793.947392,-0.250000,0.075000
793.980779,-0.175000,0.089268
794.014166,-0.025000,0.216145
794.047553,0.175000,0.054486
794.080940,0.200000,0.061237
794.114326,0.250000,0.075000
794.147712,-0.050000,0.055902
794.181097,0.000000,0.122474
794.214483,0.225000,0.096014
794.247868,0.175000,0.129301
794.281252,-0.025000,0.089268
794.314637,-0.375000,0.054486
794.348021,0.325000,0.151554
794.381405,-0.050000,0.055902
794.414788,0.100000,0.212132
794.448172,0.275000,0.119242
794.481555,-0.150000,0.043301
794.514938,0.150000,0.311247
794.548320,-0.125000,0.054486
794.581702,0.325000,0.227418
794.615084,0.150000,0.108972
794.648466,0.425000,0.204252
794.681847,0.250000,0.082916
794.715228,0.250000,0.279508
794.748609,-0.175000,0.143069
794.781990,-0.675000,0.357727
794.815370,0.675000,0.421863
794.848750,0.025000,0.073951
794.882129,-0.300000,0.061237
794.915509,-0.025000,0.124373
794.948888,-0.225000,0.138632
794.982267,0.200000,0.127475
795.015645,0.100000,0.173205
795.049023,0.125000,0.073951
795.082401,0.175000,0.096014
795.115779,0.425000,0.427748
795.149156,-0.150000,0.090139
795.182534,0.200000,0.035355
795.215910,0.200000,0.158114
795.249287,0.900000,0.231840
795.282663,1.200000,0.302076
795.316039,3.325000,0.397453
795.349415,6.450000,1.065657
795.382790,8.425000,0.817294
795.416165,8.375000,0.955494
795.449540,3.000000,0.247487
795.482915,1.100000,0.462331
795.516289,0.650000,0.311247
795.549663,0.325000,0.147373
795.583037,0.025000,0.081968
795.616410,0.100000,0.035355
795.649783,-0.250000,0.075000
795.683156,-0.075000,0.064952
795.716529,0.375000,0.255869
795.749901,0.025000,0.113880
795.783273,0.475000,0.232849
795.816645,-0.050000,0.075000
795.850016,0.100000,0.050000
795.883387,0.075000,0.054486
795.916758,0.075000,0.073951
795.950129,0.100000,0.035355
795.983499,0.050000,0.160078
796.016869,-0.075000,0.089268
796.050239,-0.175000,0.227418
796.083608,0.250000,0.055902
796.116977,-0.100000,0.070711
796.150346,-0.300000,0.117260
796.183714,0.175000,0.129301
796.217083,0.200000,0.154110
796.250451,-0.225000,0.064952
796.283818,0.100000,0.079057
796.317186,-0.100000,0.061237
796.350553,0.150000,0.055902
796.383920,-0.250000,0.055902
796.417286,0.075000,0.064952
796.450653,-0.175000,0.089268
796.484019,0.050000,0.075000
796.517384,0.175000,0.129301
796.550750,0.050000,0.075000
796.584115,0.275000,0.073951
796.617480,0.100000,0.061237
796.650844,0.050000,0.025000
796.684209,0.000000,0.035355
796.717573,-0.150000,0.043301
796.750936,0.150000,0.025000
796.784300,0.275000,0.178098
796.817663,0.000000,0.061237
796.851026,-0.100000,0.061237
796.884388,-0.175000,0.021651
796.917751,0.350000,0.275000
796.951113,-0.050000,0.090139
796.984474,0.025000,0.041458
797.017836,0.025000,0.041458
797.051197,-0.075000,0.041458
797.084558,-0.200000,0.117260
797.117918,0.600000,0.257391
797.151279,0.500000,0.050000
797.184639,2.575000,0.683168
797.217998,4.350000,0.579332
797.251358,8.050000,0.958188
797.284717,12.625000,1.365364
797.318076,7.775000,0.983854
797.351434,2.550000,0.491808
797.384793,0.275000,0.041458
797.418151,0.400000,0.035355
797.451508,0.325000,0.064952
797.484866,0.400000,0.212132
797.518223,0.250000,0.043301
797.551580,-0.150000,0.025000
797.584936,-0.125000,0.054486
797.618292,-0.150000,0.043301
797.651648,-0.100000,0.050000
797.685004,-0.075000,0.054486
797.718360,0.300000,0.061237
797.751715,0.225000,0.081968
797.785069,0.150000,0.025000
797.818424,0.150000,0.160078
797.851778,-0.075000,0.096014
797.885132,-0.325000,0.129301
797.918486,0.050000,0.134629
797.951839,0.175000,0.184983
797.985192,0.075000,0.041458
798.018545,0.350000,0.134629
798.051898,0.300000,0.154110
798.085250,0.125000,0.138632
798.118602,-0.200000,0.079057
798.151954,-0.175000,0.096014
798.185305,0.000000,0.127475
798.218656,0.125000,0.073951
798.252007,0.200000,0.035355
798.285357,0.400000,0.136931
798.318708,-0.050000,0.075000
798.352057,0.200000,0.035355
798.385407,0.075000,0.064952
798.418756,0.100000,0.136931
798.452106,0.125000,0.096014
798.485454,0.050000,0.025000
798.518803,0.225000,0.041458
798.552151,0.075000,0.155624
798.585499,0.425000,0.238157
798.618847,-0.200000,0.106066
798.652194,0.125000,0.054486
798.685541,0.150000,0.025000
798.718888,0.425000,0.167239
798.752234,-0.225000,0.021651
798.785580,0.350000,0.082916
798.818926,-0.075000,0.054486
798.852272,-0.075000,0.108253
798.885617,-0.325000,0.054486
798.918962,0.100000,0.035355
798.952307,0.050000,0.175000
798.985651,0.375000,0.113880
799.018996,0.225000,0.253414
799.052339,0.600000,0.242384
799.085683,2.975000,0.163459
799.119026,5.925000,0.840666
799.152369,10.700000,1.022864
799.185712,11.725000,0.996478
799.219054,8.775000,0.920852
799.252397,3.775000,0.764342
799.285738,0.675000,0.143069
799.319080,-0.075000,0.073951
799.352421,0.100000,0.050000
799.385762,0.075000,0.041458
799.419103,-0.025000,0.064952
799.452443,0.150000,0.114564
799.485783,0.050000,0.075000
799.519123,-0.125000,0.064952
799.552463,-0.050000,0.082916
799.585802,0.100000,0.035355
799.619141,0.600000,0.269258
799.652480,-0.150000,0.192029
799.685818,-0.350000,0.082916
799.719156,0.100000,0.111803
799.752494,0.325000,0.124373
799.785831,0.150000,0.134629
799.819169,0.350000,0.195256
799.852506,0.000000,0.061237
799.885842,0.100000,0.252488
799.919179,0.125000,0.113880
799.952515,0.200000,0.093541
799.985850,0.100000,0.093541
800.019186,-0.075000,0.073951
800.052521,0.100000,0.154110
800.085856,-0.050000,0.075000
800.119191,0.100000,0.127475
800.152525,0.425000,0.124373
800.185859,0.625000,0.184983
800.219193,0.175000,0.113880
800.252526,0.125000,0.041458
800.285859,0.025000,0.119242
800.319192,0.025000,0.041458
800.352525,0.100000,0.070711
800.385857,-0.025000,0.096014
800.419189,0.350000,0.114564
800.452521,0.425000,0.230149
800.485852,0.125000,0.089268
800.519183,-0.300000,0.196850
800.552514,0.225000,0.227418
800.585844,-0.825000,0.108253
800.619175,0.150000,0.055902
800.652505,-0.075000,0.041458
800.685834,0.400000,0.154110
800.719164,0.125000,0.041458
800.752493,0.000000,0.061237
800.785821,0.050000,0.160078
800.819150,0.000000,0.162019
800.852478,0.075000,0.108253
800.885806,0.525000,0.343466
800.919134,0.500000,0.086603
800.952461,0.825000,0.432110
800.985788,2.650000,0.283945
801.019115,8.100000,0.944060
801.052441,21.975000,1.089366
801.085767,29.325000,1.786888
801.119093,27.200000,1.457309
801.152419,10.925000,0.573776
801.185744,1.150000,0.213600
801.219069,0.100000,0.127475
801.252394,0.350000,0.103078
801.285718,0.075000,0.089268
801.319042,0.050000,0.043301
801.352366,-0.075000,0.155624
801.385690,0.225000,0.054486
801.419013,-0.250000,0.265754
801.452336,0.075000,0.201168
801.485658,0.200000,0.122474
801.518981,0.450000,0.283945
801.552303,0.200000,0.061237
801.585625,0.175000,0.102317
801.618946,0.425000,0.306951
801.652267,0.225000,0.322829
801.685588,0.300000,0.262202
801.718909,0.425000,0.270127
801.752229,0.250000,0.134629
801.785549,0.150000,0.075000
801.818869,0.250000,0.082916
801.852188,0.400000,0.320156
801.885507,0.625000,0.198037
801.918826,0.400000,0.117260
801.952145,-0.275000,0.041458
801.985463,-0.125000,0.096014
802.018781,0.275000,0.021651
802.052099,0.125000,0.041458
802.085416,0.000000,0.106066
802.118733,0.025000,0.081968
802.152050,0.350000,0.103078
802.185366,0.300000,0.215058
802.218683,0.325000,0.255869
802.251999,0.200000,0.093541
802.285314,-0.150000,0.134629
802.318630,0.075000,0.073951
802.351945,-0.025000,0.096014
802.385259,0.475000,0.230149
802.418574,-0.025000,0.073951
802.451888,0.425000,0.194856
802.485202,0.050000,0.075000
802.518515,0.425000,0.224653
802.551829,0.000000,0.035355
802.585142,0.450000,0.108972
802.618454,0.075000,0.021651
802.651767,0.075000,0.021651
802.685079,-0.475000,0.089268
802.718391,0.050000,0.025000
802.751702,-0.075000,0.054486
802.785013,0.125000,0.021651
802.818324,0.050000,0.114564
802.851635,0.025000,0.073951
802.884945,0.500000,0.401559
802.918255,4.600000,0.866747
802.951565,14.950000,1.546165
802.984874,27.325000,1.201757
803.018184,40.900000,0.958514
803.051492,32.000000,1.271318
803.084801,8.475000,1.376760
803.118109,1.100000,0.353553
803.151417,-0.100000,0.136931
803.184725,0.325000,0.194856
803.218032,0.425000,0.170935
803.251339,0.075000,0.041458
803.284646,0.200000,0.154110
803.317953,-0.025000,0.054486
803.351259,-0.225000,0.064952
803.384565,-0.075000,0.064952
803.417870,-0.025000,0.041458
803.451176,0.200000,0.079057
803.484481,-0.200000,0.070711
803.517786,-0.100000,0.000000
803.551090,0.100000,0.061237
803.584394,0.125000,0.113880
803.617698,-0.275000,0.041458
803.651002,0.350000,0.103078
803.684305,-0.200000,0.035355
803.717608,0.250000,0.201556
803.750910,0.300000,0.266927
803.784213,0.075000,0.041458
803.817515,0.200000,0.079057
803.850817,-0.125000,0.213234
803.884118,0.425000,0.235518
803.917419,0.200000,0.093541
803.950720,0.425000,0.138632
803.984021,0.225000,0.064952
804.017321,0.100000,0.093541
804.050621,0.075000,0.119242
804.083921,0.475000,0.167239
804.117220,0.650000,0.375000
804.150519,-0.150000,0.055902
804.183818,0.125000,0.081968
804.217117,0.100000,0.325960
804.250415,0.175000,0.041458
804.283713,0.375000,0.238157
804.317011,0.050000,0.055902
804.350308,0.000000,0.035355
804.383605,0.075000,0.089268
804.416902,0.450000,0.114564
804.450198,0.350000,0.188746
804.483494,0.100000,0.070711
804.516790,0.475000,0.134048
804.550086,0.125000,0.167239
804.583381,0.150000,0.328824
804.616676,0.600000,0.215058
804.649971,0.175000,0.096014
804.683265,-0.125000,0.089268
804.716559,-0.250000,0.043301
804.749853,0.275000,0.096014
804.783146,0.200000,0.206155
804.816440,1.375000,0.352447
804.849732,7.525000,0.938999
804.883025,19.575000,1.063823
804.916317,42.175000,1.003976
804.949609,56.350000,1.920124
804.982901,31.566667,1.319249
805.016192,7.925000,1.196022
805.049484,1.400000,0.271570
805.082774,-0.225000,0.316968
805.116065,0.200000,0.141421
805.149355,0.275000,0.230149
805.182645,-0.100000,0.061237
805.215935,0.425000,0.224653
805.249224,-0.075000,0.021651
805.282513,0.200000,0.061237
805.315802,0.125000,0.021651
805.349090,0.025000,0.096014
805.382378,0.275000,0.073951
805.415666,0.200000,0.106066
805.448954,0.075000,0.113880
805.482241,0.050000,0.025000
805.515528,0.175000,0.181573
805.548815,0.250000,0.103078
805.582101,0.300000,0.050000
805.615387,0.250000,0.160078
805.648673,0.000000,0.035355
805.681958,0.325000,0.514022
805.715243,0.350000,0.288314
805.748528,0.100000,0.035355
805.781813,0.450000,0.268095
805.815097,0.725000,0.412879
805.848381,-0.125000,0.184983
805.881665,-0.050000,0.108972
805.914948,0.325000,0.188331
805.948231,-0.025000,0.021651
805.981514,-0.200000,0.127475
806.014796,0.200000,0.093541
806.048079,0.150000,0.025000
806.081360,-0.225000,0.041458
806.114642,0.125000,0.054486
806.147923,0.700000,0.377492
806.181204,0.350000,0.147902
806.214485,-0.300000,0.061237
806.247765,-0.025000,0.124373
806.281046,0.125000,0.041458
806.314325,0.000000,0.154110
806.347605,0.250000,0.175000
806.380884,-0.575000,0.081968
806.414163,0.400000,0.183712
806.447441,0.150000,0.082916
806.480720,0.475000,0.288043
806.513998,-0.025000,0.021651
806.547275,0.275000,0.089268
806.580553,0.200000,0.093541
806.613830,0.450000,0.311247
806.647107,0.150000,0.195256
806.680383,0.350000,0.261008
806.713659,0.800000,0.425735
806.746935,0.900000,0.520817
806.780211,6.100000,0.696419
806.813486,33.300000,1.168867
806.846761,70.566667,1.398362
806.880036,97.100000,3.830307
806.913310,81.650000,3.614640
806.946584,19.875000,1.012654
806.979858,3.450000,0.752080
807.013132,0.675000,0.245904
807.046405,0.275000,0.181573
807.079678,0.400000,0.259808
807.112951,0.150000,0.025000
807.146223,-0.225000,0.041458
807.179495,-0.050000,0.075000
807.212767,-0.625000,0.102317
807.246038,-0.025000,0.073951
807.279309,-0.250000,0.055902
807.312580,0.075000,0.163459
807.345850,-0.175000,0.054486
807.379121,0.300000,0.215058
807.412390,0.500000,0.382426
807.445660,0.150000,0.103078
807.478929,0.400000,0.212132
807.512198,0.350000,0.114564
807.545467,-0.225000,0.124373
807.578735,0.050000,0.114564
807.612004,-0.750000,0.075000
807.645271,0.000000,0.035355
807.678539,-0.200000,0.173205
807.711806,0.175000,0.096014
807.745073,0.025000,0.089268
807.778340,0.150000,0.167705
807.811606,0.175000,0.041458
807.844872,0.300000,0.162019
807.878138,0.275000,0.326678
807.911403,-0.300000,0.079057
807.944668,0.550000,0.251247
807.977933,0.300000,0.348210
808.011197,0.425000,0.248433
808.044462,0.750000,0.303109
808.077725,0.100000,0.106066
808.110989,0.300000,0.035355
808.144252,0.550000,0.125000
808.177515,0.350000,0.167705
808.210778,0.350000,0.225000
808.244040,0.175000,0.216145
808.277302,-0.125000,0.096014
808.310564,-0.000000,0.093541
808.343826,0.500000,0.183712
808.377087,-0.025000,0.064952
808.410348,0.125000,0.113880
808.443608,0.175000,0.096014
808.476869,-0.100000,0.093541
808.510129,-0.275000,0.073951
808.543388,0.075000,0.134048
808.576648,0.275000,0.119242
808.609907,-0.025000,0.041458
808.643165,0.475000,0.143069
808.676424,1.325000,0.558318
808.709682,2.875000,0.369755
808.742940,24.733333,0.884119
808.776197,83.066667,2.632568
808.809455,144.100000,6.019655
808.842712,168.575000,6.351907
808.875968,77.925000,3.187941
808.909225,15.275000,1.283245
808.942481,3.350000,0.766078
808.975736,0.275000,0.368061
809.008992,0.250000,0.227761
809.042247,0.000000,0.093541
809.075502,-0.025000,0.198037
809.108756,-0.600000,0.150000
809.142011,0.200000,0.145774
809.175265,-0.025000,0.041458
809.208518,0.150000,0.055902
809.241772,0.225000,0.134048
809.275025,0.125000,0.064952
809.308277,0.025000,0.054486
809.341530,0.225000,0.041458
809.374782,0.375000,0.147373
809.408034,0.800000,0.669888
809.441285,-0.025000,0.341641
809.474536,-0.400000,0.079057
809.507787,-0.125000,0.178098
809.541038,0.575000,0.439282
809.574288,-0.225000,0.073951
809.607538,0.250000,0.328824
809.640788,-0.050000,0.163936
809.674037,0.325000,0.138632
809.707286,0.100000,0.106066
809.740535,0.550000,0.275000
809.773783,0.600000,0.254951
809.807032,-0.050000,0.114564
809.840279,-0.350000,0.192029
809.873527,-0.175000,0.147373
809.906774,-0.050000,0.147902
809.940021,0.625000,0.639702
809.973268,0.325000,0.216145
810.006514,-0.050000,0.248747
810.039760,-0.025000,0.138632
810.073006,0.350000,0.340037
810.106251,0.625000,0.240767
810.139497,0.550000,0.125000
810.172741,0.100000,0.061237
810.205986,0.000000,0.061237
810.239230,-0.550000,0.103078
810.272474,1.200000,0.314245
810.305718,0.400000,0.544289
810.338961,-0.125000,0.472196
810.372204,-0.325000,0.238157
810.405447,-0.700000,0.469042
810.438689,0.600000,0.271570
810.471931,-0.350000,0.160078
810.505173,0.550000,0.283945
810.538414,0.650000,0.147902
810.571656,-0.050000,0.055902
810.604897,1.200000,0.237171
810.638137,0.750000,0.311247
810.671377,10.875000,0.724030
810.704617,66.825000,2.814777
810.737857,208.400000,4.981089
810.771096,317.200000,4.098323
810.804335,327.850000,5.186340
810.837574,142.500000,1.354622
810.870813,17.433333,1.080123
810.904051,3.775000,1.127151
810.937288,0.375000,0.124373
810.970526,0.450000,0.238485
811.003763,-0.250000,0.103078
811.037000,0.225000,0.184983
811.070237,0.150000,0.114564
811.103473,-0.150000,0.134629
811.136709,0.100000,0.215058
811.169945,0.000000,0.266927
811.203180,0.425000,0.113880
811.236415,0.350000,0.332603
811.269650,-0.225000,0.089268
811.302884,-0.125000,0.210283
811.336119,0.225000,0.096014
811.369352,0.075000,0.054486
811.402586,1.125000,0.556074
811.435819,0.625000,0.350669
811.469052,0.500000,0.374166
811.502285,0.025000,0.646505
811.535517,-1.833333,0.574819
811.568749,0.650000,0.572822
811.601981,-0.266667,0.124164
811.635212,0.050000,0.388104
811.668443,0.375000,0.221853
811.701674,0.475000,0.245904
811.734905,0.000000,0.322102
811.768135,0.250000,0.147902
811.801365,1.025000,0.337963
811.834594,0.225000,0.306951
811.867824,-0.300000,0.183712
811.901053,-0.475000,0.021651
811.934281,0.325000,0.374792
811.967510,0.475000,0.560552
812.000738,0.200000,0.154110
812.033965,0.150000,0.103078
812.067193,-0.075000,0.081968
812.100420,0.375000,0.364649
812.133647,-0.125000,0.054486
812.166873,-1.075000,0.235518
812.200099,-0.050000,0.147902
812.233325,-0.225000,0.041458
812.266551,-0.300000,0.035355
812.299776,0.075000,0.089268
812.333001,0.775000,0.298695
812.366226,0.300000,0.187083
812.399450,-0.200000,0.141421
812.432674,0.000000,0.035355
812.465898,-0.250000,0.207666
812.499121,0.075000,0.096014
812.532345,0.225000,0.170935
812.565567,0.550000,0.227761
812.598790,1.050000,0.334477
812.632012,2.925000,0.322829
812.665234,18.225000,1.150204
812.698456,71.025000,3.326480
812.731677,123.850000,2.448086
812.764898,124.600000,2.760435
812.798119,67.000000,2.757263
812.831339,9.400000,0.721976
812.864559,1.350000,0.396074
812.897779,0.875000,0.417395
812.930998,0.300000,0.176777
812.964217,0.950000,0.552834
812.997436,0.000000,0.154110
813.030655,0.150000,0.055902
813.063873,0.375000,0.245904
813.097091,0.100000,0.050000
813.130308,-0.300000,0.127475
813.163526,0.300000,0.297909
813.196743,-0.100000,0.154110
813.229959,0.050000,0.075000
813.263176,0.025000,0.021651
813.296392,-0.150000,0.025000
813.329607,-0.050000,0.147902
813.362823,0.200000,0.122474
813.396038,0.175000,0.041458
813.429253,0.275000,0.383039
813.462467,-0.300000,0.145774
813.495682,0.075000,0.102317
813.528895,-0.000000,0.093541
813.562109,0.050000,0.219374
813.595322,0.150000,0.055902
813.628535,0.700000,0.280624
813.661748,0.300000,0.289396
813.694960,0.275000,0.224653
813.728172,-0.125000,0.073951
813.761384,-0.050000,0.075000
813.794596,-0.475000,0.041458
813.827807,-0.425000,0.054486
813.861017,-0.250000,0.207666
813.894228,-0.100000,0.079057
813.927438,0.250000,0.043301
813.960648,0.150000,0.055902
813.993858,0.675000,0.702117
814.027067,0.150000,0.090139
814.060276,-0.125000,0.041458
814.093485,0.025000,0.147373
814.126693,0.325000,0.300780
814.159901,-0.125000,0.181573
814.193109,-0.550000,0.043301
814.226316,0.225000,0.064952
814.259523,0.175000,0.240767
814.292730,0.375000,0.316968
814.325936,0.300000,0.093541
814.359143,0.300000,0.117260
814.392348,-0.100000,0.086603
814.425554,0.050000,0.082916
814.458759,0.250000,0.182003
814.491964,-0.225000,0.073951
814.525169,0.250000,0.103078
814.558373,0.200000,0.289396
814.591577,-0.150000,0.082916
814.624781,0.650000,0.620987
814.657984,0.725000,0.227418
