#{
#    "background_file": "Backgrounds\\\\bg_787.999nm_16bin_197st_244en_10.0s_110g_4x_1_seq.txt",
#    "ccd_image_settings": [
#        1,
#        16,
#        1,
#        1600,
#        197,
#        244
#    ],
#    "ccd_temperature": "-88",
#    "cdRatios": {
#        "mean": 0.923971456545785,
#        "std": 0.006171582012579425
#    },
#    "center_lambda": 788.0,
#    "comments": "",
#    "dark_region": 0.3001999655015127,
#    "date": "11/17/19 14:17:24PM",
#    "eff_field": 1.5,
#    "exposure": 10.0,
#    "fel_lambda": "15.0",
#    "fel_pol": "H",
#    "fel_pulses": 40,
#    "fel_pyro_cal": "0.017",
#    "fel_reprate": "1.07",
#    "fel_transmission": "1.0",
#    "fel_transmission_fits": {
#        "A": 1.0,
#        "C": 0.0,
#        "Mu": 0.0
#    },
#    "fieldInt": {
#        "mean": 9440.059386363635,
#        "std": 387.8491048650707
#    },
#    "fieldStrength": {
#        "mean": 44.570409090909095,
#        "std": 0.910557479582962
#    },
#    "fpTime": {
#        "mean": 1.184730010935659,
#        "std": 0.07958867331127573
#    },
#    "gain": 110,
#    "grating": 3,
#    "images_in_sequence": [
#        "hsg_SpotD_crystal16_a45_HAna113.txt",
#        "hsg_SpotD_crystal16_a45_HAna114.txt",
#        "hsg_SpotD_crystal16_a45_HAna115.txt",
#        "hsg_SpotD_crystal16_a45_HAna116.txt"
#    ],
#    "nir_lambda": "820.9918",
#    "nir_pola": "45",
#    "nir_polg": "0",
#    "nir_power": "100.0",
#    "pulseEnergies": {
#        "mean": 2.0495681818181817,
#        "std": 0.09539645002045376
#    },
#    "pyroVoltage": {
#        "mean": 0.13052583797691553,
#        "std": 0.006825156913037581
#    },
#    "rotatorAngle": 247.4999963378817,
#    "sample_Temp": "58",
#    "sample_name": "L001218.C3",
#    "series": "SpotD_16_45",
#    "slits": "60",
#    "spec_step": "",
#    "window_trans": 0.92,
#    "y_max": 2,
#    "y_min": 1
#}
#
#
#
#
#
#
#
#
#
#
#
#
#
#
#
#
#
#
#
#
#
#
#
#
#
#
Wavelength,Signal,error
nm,arb. u.,arb.u.
Wavelength,SpotD_16_45,error
761.200217,-0.150000,0.251247
761.233859,-0.100000,0.280624
761.267500,0.150000,0.336341
761.301141,0.275000,0.167239
761.334781,-0.025000,0.102317
761.368422,-0.525000,0.174553
761.402062,0.200000,0.093541
761.435702,-0.425000,0.096014
761.469342,-0.225000,0.138632
761.502981,0.075000,0.129301
761.536620,0.050000,0.294746
761.570259,-0.325000,0.138632
761.603898,-0.425000,0.224653
761.637537,-0.125000,0.216145
761.671175,0.000000,0.229129
761.704813,0.075000,0.198037
761.738451,0.275000,0.102317
761.772088,0.000000,0.333542
761.805726,-0.400000,0.162019
761.839363,-0.250000,0.195256
761.873000,-0.550000,0.160078
761.906636,0.100000,0.333542
761.940273,0.050000,0.134629
761.973909,-0.050000,0.160078
762.007545,-0.100000,0.136931
762.041180,-0.475000,0.181573
762.074816,0.425000,0.389511
762.108451,-0.075000,0.216145
762.142086,0.125000,0.181573
762.175720,-0.025000,0.198037
762.209355,0.175000,0.292350
762.242989,-0.025000,0.207289
762.276623,-0.175000,0.201168
762.310257,0.000000,0.215058
762.343890,-0.575000,0.184983
762.377524,-0.150000,0.147902
762.411157,0.025000,0.201168
762.444789,-0.175000,0.216145
762.478422,-0.100000,0.162019
762.512054,0.525000,0.668370
762.545686,0.200000,0.229129
762.579318,0.150000,0.275000
762.612950,-0.100000,0.206155
762.646581,0.200000,0.348210
762.680212,-0.075000,0.245904
762.713843,0.100000,0.203101
762.747474,-0.025000,0.240767
762.781104,-0.250000,0.201556
762.814734,-0.475000,0.245904
762.848364,-0.350000,0.160078
762.881994,-0.275000,0.216145
762.915623,-0.125000,0.184983
762.949252,-0.050000,0.195256
762.982881,0.000000,0.206155
763.016510,0.225000,0.143069
763.050139,-0.250000,0.283945
763.083767,-0.225000,0.113880
763.117395,-0.050000,0.219374
763.151023,-0.075000,0.188331
763.184650,-0.075000,0.124373
763.218277,-0.125000,0.318934
763.251904,-0.025000,0.253414
763.285531,-0.175000,0.155624
763.319158,0.325000,0.119242
763.352784,0.075000,0.359470
763.386410,-0.375000,0.108253
763.420036,-0.575000,0.298695
763.453661,-0.025000,0.368061
763.487287,0.050000,0.317214
763.520912,-1.275000,0.159589
763.554537,0.325000,0.113880
763.588161,-0.025000,0.073951
763.621786,-0.050000,0.241091
763.655410,0.050000,0.230489
763.689034,-0.325000,0.250936
763.722657,-0.150000,0.219374
763.756281,0.000000,0.358818
763.789904,-0.200000,0.176777
763.823527,-0.175000,0.216145
763.857150,-0.325000,0.147373
763.890772,-0.425000,0.230149
763.924394,-0.075000,0.227418
763.958016,0.050000,0.160078
763.991638,0.300000,0.079057
764.025260,-0.025000,0.230149
764.058881,0.275000,0.397453
764.092502,-0.300000,0.111803
764.126123,0.375000,0.147373
764.159743,-0.200000,0.154110
764.193363,-0.200000,0.122474
764.226983,0.200000,0.150000
764.260603,0.375000,0.330483
764.294223,-0.375000,0.188331
764.327842,0.000000,0.244949
764.361461,0.150000,0.160078
764.395080,-0.150000,0.275000
764.428699,-0.200000,0.231840
764.462317,0.625000,0.666497
764.495935,-0.150000,0.043301
764.529553,0.000000,0.209165
764.563170,0.525000,0.397453
764.596788,0.025000,0.213234
764.630405,-0.275000,0.213234
764.664022,-0.350000,0.188746
764.697638,0.025000,0.201168
764.731255,-0.175000,0.188331
764.764871,-0.025000,0.267804
764.798487,-0.250000,0.235850
764.832103,-0.175000,0.163459
764.865718,0.300000,0.231840
764.899333,-0.200000,0.176777
764.932948,-0.200000,0.252488
764.966563,-0.300000,0.237171
765.000177,-0.075000,0.174553
765.033792,-0.225000,0.138632
765.067406,-0.025000,0.194856
765.101019,-0.150000,0.134629
765.134633,-0.500000,0.061237
765.168246,0.025000,0.255869
765.201859,-0.025000,0.167239
765.235472,0.325000,0.308980
765.269084,0.075000,0.274716
765.302697,-0.450000,0.201556
765.336309,-0.025000,0.238157
765.369920,0.025000,0.276981
765.403532,-0.225000,0.108253
765.437143,-0.325000,0.181573
765.470754,0.050000,0.248747
765.504365,-0.225000,0.159589
765.537976,-0.050000,0.235850
765.571586,-0.325000,0.089268
765.605196,-0.450000,0.163936
765.638806,-0.050000,0.225000
765.672416,-0.100000,0.086603
765.706025,-0.025000,0.167239
765.739634,0.175000,0.288043
765.773243,0.150000,0.219374
765.806851,-0.100000,0.220794
765.840460,-0.225000,0.227418
765.874068,0.000000,0.162019
765.907676,-0.375000,0.096014
765.941284,-0.225000,0.163459
765.974891,-0.000000,0.127475
766.008498,-0.225000,0.113880
766.042105,-0.125000,0.227418
766.075712,-0.300000,0.234521
766.109318,-0.150000,0.192029
766.142924,-0.150000,0.195256
766.176530,-0.550000,0.235850
766.210136,-0.250000,0.258602
766.243741,-0.050000,0.125000
766.277347,-0.225000,0.207289
766.310951,0.125000,0.224653
766.344556,-0.050000,0.134629
766.378161,0.225000,0.328586
766.411765,-0.325000,0.138632
766.445369,-0.325000,0.108253
766.478973,-0.350000,0.195256
766.512576,0.075000,0.337963
766.546179,-0.325000,0.198037
766.579782,-0.275000,0.181573
766.613385,0.000000,0.291548
766.646988,-0.375000,0.216145
766.680590,0.150000,0.103078
766.714192,-0.075000,0.155624
766.747794,-0.100000,0.220794
766.781395,0.150000,0.178536
766.814996,-0.250000,0.160078
766.848597,0.475000,0.433554
766.882198,-0.175000,0.134048
766.915799,0.025000,0.163459
766.949399,0.100000,0.276134
766.982999,0.225000,0.322829
767.016599,-0.175000,0.096014
767.050198,0.250000,0.090139
767.083798,-0.150000,0.160078
767.117397,-0.250000,0.248747
767.150996,-0.050000,0.108972
767.184594,-0.025000,0.318934
767.218193,0.175000,0.102317
767.251791,0.125000,0.296595
767.285389,-0.275000,0.337963
767.318986,0.475000,0.378112
767.352583,-0.175000,0.167239
767.386181,-0.025000,0.181573
767.419777,-0.275000,0.134048
767.453374,0.400000,0.306186
767.486970,-0.500000,0.173205
767.520567,-0.075000,0.124373
767.554162,0.050000,0.235850
767.587758,-0.125000,0.108253
767.621353,0.100000,0.254951
767.654949,-0.325000,0.204252
767.688543,-0.025000,0.081968
767.722138,0.175000,0.041458
767.755732,0.100000,0.203101
767.789327,-0.300000,0.234521
767.822921,-0.350000,0.143614
767.856514,-0.325000,0.143069
767.890108,-0.025000,0.198037
767.923701,-0.025000,0.230149
767.957294,0.050000,0.192029
767.990886,0.125000,0.255869
768.024479,-0.025000,0.426285
768.058071,0.000000,0.215058
768.091663,-0.450000,0.201556
768.125255,-0.150000,0.134629
768.158846,0.000000,0.154110
768.192437,-0.500000,0.262202
768.226028,-0.225000,0.163459
768.259619,0.050000,0.230489
768.293209,-0.075000,0.198037
768.326799,0.100000,0.257391
768.360389,-0.175000,0.184983
768.393979,-0.200000,0.093541
768.427568,0.075000,0.230149
768.461158,-0.175000,0.096014
768.494747,-0.250000,0.207666
768.528335,0.025000,0.320887
768.561924,0.275000,0.204252
768.595512,0.150000,0.055902
768.629100,-0.050000,0.147902
768.662688,-0.075000,0.216145
768.696275,0.050000,0.265754
768.729862,-0.225000,0.230149
768.763449,-0.350000,0.167705
768.797036,-0.200000,0.203101
768.830623,0.400000,0.310242
768.864209,-0.075000,0.108253
768.897795,-0.075000,0.216145
768.931381,0.125000,0.240767
768.964966,-0.350000,0.188746
768.998551,0.025000,0.265460
769.032136,-0.175000,0.188331
769.065721,-0.175000,0.221853
769.099305,-0.425000,0.167239
769.132890,-0.250000,0.301040
769.166474,0.000000,0.106066
769.200057,0.200000,0.348210
769.233641,-0.150000,0.340037
769.267224,-0.200000,0.187083
769.300807,-0.375000,0.285865
769.334390,-0.100000,0.162019
769.367972,0.300000,0.217945
769.401555,0.175000,0.348882
769.435137,-0.075000,0.504201
769.468718,-0.075000,0.163459
769.502300,0.200000,0.413824
769.535881,-0.300000,0.145774
769.569462,-0.375000,0.235518
769.603043,-0.300000,0.145774
769.636623,-0.025000,0.263095
769.670204,-0.325000,0.108253
769.703784,-0.150000,0.134629
769.737364,0.000000,0.122474
769.770943,0.375000,0.357727
769.804522,-0.300000,0.176777
769.838101,-0.250000,0.225000
769.871680,-0.375000,0.143069
769.905259,-0.275000,0.041458
769.938837,-0.150000,0.235850
769.972415,-0.050000,0.225000
770.005993,0.150000,0.268095
770.039570,-0.100000,0.203101
770.073147,0.300000,0.403113
770.106724,-0.050000,0.265754
770.140301,0.375000,0.064952
770.173878,-0.050000,0.075000
770.207454,-0.100000,0.117260
770.241030,0.175000,0.073951
770.274606,-0.175000,0.054486
770.308181,0.050000,0.055902
770.341757,0.150000,0.195256
770.375332,0.100000,0.183712
770.408906,0.125000,0.322829
770.442481,-0.450000,0.201556
770.476055,-0.350000,0.192029
770.509629,-0.100000,0.196850
770.543203,0.025000,0.294480
770.576776,0.300000,0.358818
770.610350,0.475000,0.414390
770.643923,-0.200000,0.145774
770.677495,-0.075000,0.227418
770.711068,0.400000,0.552268
770.744640,-0.150000,0.167705
770.778212,-0.100000,0.145774
770.811784,0.025000,0.272431
770.845356,-0.275000,0.155624
770.878927,0.150000,0.163936
770.912498,-0.225000,0.155624
770.946069,-0.325000,0.147373
770.979639,0.400000,0.231840
771.013209,0.150000,0.143614
771.046779,-0.550000,0.167705
771.080349,-0.100000,0.209165
771.113919,-0.125000,0.240767
771.147488,-0.075000,0.285865
771.181057,-0.125000,0.204252
771.214626,-0.125000,0.227418
771.248194,0.175000,0.318934
771.281762,-0.325000,0.230149
771.315330,-0.075000,0.041458
771.348898,0.075000,0.198037
771.382465,-0.100000,0.079057
771.416033,-0.350000,0.160078
771.449600,0.250000,0.090139
771.483166,-0.125000,0.198037
771.516733,0.425000,0.378112
771.550299,-0.175000,0.178098
771.583865,0.650000,0.082916
771.617431,-0.075000,0.194856
771.650996,0.100000,0.231840
771.684562,-0.075000,0.263095
771.718127,-0.125000,0.188331
771.751691,0.000000,0.106066
771.785256,-0.375000,0.151554
771.818820,-0.250000,0.227761
771.852384,0.500000,0.145774
771.885948,-0.025000,0.143069
771.919511,-0.225000,0.213234
771.953074,0.150000,0.043301
771.986637,0.225000,0.238157
772.020200,-0.125000,0.096014
772.053762,-0.025000,0.224653
772.087325,0.025000,0.337963
772.120887,-0.075000,0.374792
772.154448,-0.050000,0.167705
772.188010,0.075000,0.163459
772.221571,-0.225000,0.041458
772.255132,-0.025000,0.170935
772.288692,-0.050000,0.188746
772.322253,0.125000,0.290205
772.355813,-0.200000,0.339116
772.389373,-0.250000,0.225000
772.422933,-0.175000,0.270127
772.456492,0.350000,0.402337
772.490051,-0.050000,0.216506
772.523610,0.075000,0.378112
772.557169,-0.225000,0.232849
772.590727,-0.125000,0.198037
772.624285,-0.050000,0.075000
772.657843,-0.075000,0.188331
772.691401,-0.500000,0.215058
772.724958,-0.100000,0.231840
772.758515,0.000000,0.271570
772.792072,0.000000,0.162019
772.825629,-0.175000,0.255869
772.859185,0.150000,0.160078
772.892741,-0.025000,0.302851
772.926297,-0.025000,0.194856
772.959853,-0.100000,0.176777
772.993408,-0.825000,0.207289
773.026963,-0.325000,0.181573
773.060518,-0.200000,0.203101
773.094073,0.025000,0.436427
773.127627,0.025000,0.240767
773.161181,0.150000,0.201556
773.194735,0.600000,0.070711
773.228289,-0.325000,0.138632
773.261842,0.200000,0.401559
773.295395,0.175000,0.322829
773.328948,0.175000,0.163459
773.362500,0.300000,0.127475
773.396053,0.050000,0.336341
773.429605,-0.225000,0.174553
773.463157,0.000000,0.154110
773.496708,0.625000,0.399022
773.530260,0.000000,0.061237
773.563811,-0.225000,0.260708
773.597361,-0.250000,0.268095
773.630912,-0.150000,0.182003
773.664462,0.150000,0.134629
773.698012,0.125000,0.510361
773.731562,-0.050000,0.294746
773.765111,-0.125000,0.174553
773.798661,-0.225000,0.174553
773.832210,-0.175000,0.181573
773.865758,-0.275000,0.134048
773.899307,-0.100000,0.215058
773.932855,0.175000,0.207289
773.966403,-0.175000,0.155624
773.999951,-0.150000,0.055902
774.033498,0.350000,0.225000
774.067046,0.325000,0.041458
774.100593,0.125000,0.272431
774.134139,0.025000,0.240767
774.167686,-0.125000,0.167239
774.201232,0.100000,0.154110
774.234778,0.350000,0.147902
774.268324,0.050000,0.248747
774.301869,-0.075000,0.276981
774.335414,-0.200000,0.269258
774.368959,-0.150000,0.188746
774.402504,-0.100000,0.127475
774.436048,-0.400000,0.209165
774.469592,0.150000,0.204634
774.503136,-0.150000,0.160078
774.536680,-0.175000,0.124373
774.570223,0.050000,0.195256
774.603766,0.250000,0.163936
774.637309,0.050000,0.147902
774.670852,0.575000,0.528412
774.704394,-0.050000,0.219374
774.737936,-0.200000,0.217945
774.771478,-0.350000,0.163936
774.805020,-0.100000,0.217945
774.838561,0.000000,0.237171
774.872102,0.350000,0.090139
774.905643,-0.150000,0.163936
774.939183,0.200000,0.150000
774.972724,-0.125000,0.170935
775.006264,0.000000,0.300000
775.039804,0.550000,0.391312
775.073343,-0.325000,0.219018
775.106882,0.125000,0.267804
775.140421,0.150000,0.195256
775.173960,-0.475000,0.263095
775.207499,-0.525000,0.174553
775.241037,0.000000,0.154110
775.274575,-0.025000,0.216145
775.308113,-0.300000,0.206155
775.341650,0.275000,0.108253
775.375187,-0.050000,0.160078
775.408724,-0.375000,0.155624
775.442261,-0.225000,0.198037
775.475798,-0.325000,0.198037
775.509334,-0.050000,0.103078
775.542870,-0.150000,0.207666
775.576405,-0.150000,0.188746
775.609941,0.050000,0.143614
775.643476,-0.225000,0.174553
775.677011,0.150000,0.427931
775.710546,0.050000,0.225000
775.744080,-0.125000,0.167239
775.777614,-0.075000,0.134048
775.811148,-0.025000,0.124373
775.844682,-0.075000,0.276981
775.878215,-0.325000,0.198037
775.911748,-0.125000,0.174553
775.945281,0.025000,0.235518
775.978814,-0.350000,0.256174
776.012346,-0.200000,0.220794
776.045878,-0.225000,0.267804
776.079410,-0.075000,0.184983
776.112941,-0.075000,0.167239
776.146473,-0.175000,0.129301
776.180004,-0.150000,0.075000
776.213535,0.125000,0.198037
776.247065,-0.025000,0.167239
776.280595,-0.275000,0.134048
776.314125,0.150000,0.134629
776.347655,0.000000,0.237171
776.381185,-0.025000,0.345281
776.414714,0.200000,0.217945
776.448243,0.125000,0.113880
776.481772,-0.100000,0.154110
776.515300,0.125000,0.322829
776.548828,-0.075000,0.267804
776.582356,-0.250000,0.147902
776.615884,0.050000,0.043301
776.649411,-0.050000,0.147902
776.682938,-0.125000,0.181573
776.716465,0.150000,0.143614
776.749992,0.025000,0.210283
776.783518,-0.025000,0.143069
776.817044,0.075000,0.129301
776.850570,0.000000,0.234521
776.884096,0.025000,0.159589
776.917621,-0.025000,0.167239
776.951146,0.075000,0.368061
776.984671,-0.475000,0.151554
777.018196,-0.250000,0.134629
777.051720,0.000000,0.250000
777.085244,0.100000,0.162019
777.118768,-0.450000,0.143614
777.152292,-0.175000,0.151554
777.185815,0.050000,0.195256
777.219338,-0.200000,0.154110
777.252861,-0.025000,0.248433
777.286383,-0.325000,0.296595
777.319905,-0.175000,0.096014
777.353427,0.175000,0.163459
777.386949,0.150000,0.195256
777.420471,0.150000,0.082916
777.453992,-0.100000,0.176777
777.487513,0.225000,0.281458
777.521033,-0.500000,0.150000
777.554554,-0.325000,0.250936
777.588074,0.025000,0.181573
777.621594,0.025000,0.194856
777.655114,0.250000,0.182003
777.688633,0.000000,0.106066
777.722152,-0.075000,0.188331
777.755671,-0.025000,0.207289
777.789190,-0.175000,0.221853
777.822708,-0.300000,0.203101
777.856226,0.075000,0.224653
777.889744,0.125000,0.129301
777.923261,-0.250000,0.182003
777.956779,-0.175000,0.184983
777.990296,0.000000,0.217945
778.023812,0.125000,0.308980
778.057329,0.275000,0.442118
778.090845,0.250000,0.248747
778.124361,0.450000,0.391312
778.157877,-0.050000,0.160078
778.191392,-0.200000,0.117260
778.224908,-0.125000,0.155624
778.258423,-0.025000,0.138632
778.291937,-0.275000,0.210283
778.325452,-0.100000,0.176777
778.358966,-0.300000,0.217945
778.392480,-0.050000,0.147902
778.425993,-0.225000,0.081968
778.459507,-0.100000,0.162019
778.493020,-0.125000,0.300780
778.526533,-0.050000,0.134629
778.560045,-0.275000,0.296595
778.593558,-0.225000,0.238157
778.627070,0.175000,0.409840
778.660582,0.400000,0.302076
778.694093,0.250000,0.279508
778.727605,0.100000,0.266927
778.761116,0.175000,0.324760
778.794626,0.000000,0.234521
778.828137,-0.100000,0.176777
778.861647,-0.025000,0.221853
778.895157,0.050000,0.225000
778.928667,-0.175000,0.281458
778.962176,-0.225000,0.138632
778.995686,-0.200000,0.093541
779.029194,0.550000,0.167705
779.062703,0.000000,0.234521
779.096212,-0.125000,0.174553
779.129720,-0.000000,0.231840
779.163228,-0.125000,0.064952
779.196735,-0.200000,0.145774
779.230243,-0.750000,0.167705
779.263750,-0.050000,0.160078
779.297257,0.000000,0.187083
779.330763,0.100000,0.061237
779.364269,-0.075000,0.188331
779.397776,0.175000,0.143069
779.431281,-0.050000,0.103078
779.464787,0.350000,0.321131
779.498292,0.225000,0.253414
779.531797,0.475000,0.362931
779.565302,-0.025000,0.054486
779.598806,-0.125000,0.113880
779.632311,-0.025000,0.204252
779.665814,0.000000,0.173205
779.699318,0.000000,0.162019
779.732822,0.150000,0.195256
779.766325,0.075000,0.213234
779.799828,-0.150000,0.163936
779.833330,-0.150000,0.160078
779.866833,-0.175000,0.201168
779.900335,0.400000,0.333542
779.933837,0.025000,0.290205
779.967338,-0.100000,0.262202
780.000840,-0.200000,0.266927
780.034341,-0.225000,0.204252
780.067841,0.200000,0.145774
780.101342,0.100000,0.215058
780.134842,0.425000,0.391112
780.168342,-0.150000,0.213600
780.201842,0.075000,0.255869
780.235341,0.250000,0.103078
780.268841,0.000000,0.231840
780.302340,-0.200000,0.203101
780.335838,0.200000,0.176777
780.369337,-0.025000,0.248433
780.402835,0.300000,0.237171
780.436333,0.150000,0.268095
780.469830,0.725000,0.073951
780.503328,0.750000,0.636887
780.536825,0.500000,0.127475
780.570322,0.350000,0.188746
780.603818,0.700000,0.441588
780.637315,0.200000,0.196850
780.670811,0.000000,0.162019
780.704306,-0.100000,0.220794
780.737802,0.100000,0.276134
780.771297,0.025000,0.357727
780.804792,-0.175000,0.134048
780.838287,-0.125000,0.194856
780.871781,-0.175000,0.245904
780.905276,-0.350000,0.201556
780.938770,-0.475000,0.155624
780.972263,-0.050000,0.103078
781.005757,0.025000,0.201168
781.039250,-0.275000,0.184983
781.072743,-0.025000,0.227418
781.106235,-0.175000,0.181573
781.139728,-0.100000,0.379144
781.173220,0.350000,0.340037
781.206712,0.175000,0.198037
781.240203,0.225000,0.255869
781.273694,0.225000,0.248433
781.307185,0.075000,0.250936
781.340676,-0.075000,0.248433
781.374167,0.025000,0.194856
781.407657,0.300000,0.337268
781.441147,-0.250000,0.167705
781.474636,-0.225000,0.227418
781.508126,-0.050000,0.309233
781.541615,0.000000,0.176777
781.575104,0.100000,0.176777
781.608593,0.000000,0.215058
781.642081,-0.225000,0.170935
781.675569,0.125000,0.318934
781.709057,-0.100000,0.122474
781.742544,0.150000,0.082916
781.776032,-0.325000,0.170935
781.809519,-0.275000,0.155624
781.843006,-0.100000,0.176777
781.876492,0.000000,0.206155
781.909978,0.175000,0.248433
781.943464,0.100000,0.206155
781.976950,0.100000,0.220794
782.010435,0.075000,0.265460
782.043921,0.000000,0.127475
782.077406,0.125000,0.201168
782.110890,-0.025000,0.184983
782.144375,-0.025000,0.119242
782.177859,0.100000,0.203101
782.211343,-0.025000,0.174553
782.244826,0.275000,0.362931
782.278309,0.400000,0.478278
782.311792,0.425000,0.374792
782.345275,0.975000,0.345281
782.378758,0.725000,0.411362
782.412240,0.375000,0.238157
782.445722,0.100000,0.276134
782.479204,0.125000,0.216145
782.512685,0.200000,0.276134
782.546166,0.125000,0.255869
782.579647,0.175000,0.248433
782.613128,0.325000,0.147373
782.646608,-0.075000,0.064952
782.680088,0.150000,0.025000
782.713568,-0.250000,0.192029
782.747048,0.125000,0.235518
782.780527,-0.050000,0.134629
782.814006,-0.150000,0.283945
782.847485,-0.100000,0.206155
782.880963,-0.275000,0.198037
782.914442,-0.325000,0.124373
782.947920,-0.100000,0.215058
782.981397,0.200000,0.035355
783.014875,0.375000,0.129301
783.048352,-0.075000,0.267804
783.081829,0.025000,0.064952
783.115306,0.000000,0.285044
783.148782,0.475000,0.210283
783.182258,-0.450000,0.195256
783.215734,0.050000,0.090139
783.249209,0.300000,0.508675
783.282685,0.325000,0.213234
783.316160,0.100000,0.162019
783.349635,0.100000,0.250000
783.383109,-0.350000,0.219374
783.416583,-0.050000,0.201556
783.450057,0.025000,0.054486
783.483531,0.075000,0.224653
783.517004,0.125000,0.188331
783.550477,-0.100000,0.196850
783.583950,0.025000,0.184983
783.617423,0.200000,0.173205
783.650895,0.325000,0.232849
783.684367,0.150000,0.275000
783.717839,-0.650000,0.160078
783.751311,-0.025000,0.343466
783.784782,-0.050000,0.216506
783.818253,0.000000,0.180278
783.851724,0.150000,0.167705
783.885194,0.200000,0.217945
783.918665,-0.275000,0.155624
783.952134,0.100000,0.203101
783.985604,-0.075000,0.129301
784.019074,-0.075000,0.245904
784.052543,0.100000,0.266927
784.086012,0.300000,0.287228
784.119480,0.925000,0.417395
784.152948,0.575000,0.348882
784.186416,1.200000,0.289396
784.219884,0.975000,0.414390
784.253352,1.400000,0.353553
784.286819,-0.125000,0.198037
784.320286,0.575000,0.272431
784.353753,0.300000,0.358818
784.387219,0.050000,0.134629
784.420685,-0.100000,0.271570
784.454151,0.025000,0.240767
784.487617,-0.300000,0.183712
784.521082,0.150000,0.261008
784.554547,0.225000,0.108253
784.588012,-0.075000,0.240767
784.621477,-0.100000,0.154110
784.654941,-0.075000,0.167239
784.688405,0.350000,0.216506
784.721869,-0.100000,0.180278
784.755332,0.175000,0.119242
784.788795,0.000000,0.269258
784.822258,0.125000,0.184983
784.855721,0.050000,0.129904
784.889183,0.075000,0.096014
784.922646,-0.175000,0.216145
784.956107,0.075000,0.174553
784.989569,-0.225000,0.265460
785.023030,-0.200000,0.237171
785.056491,0.000000,0.180278
785.089952,-0.125000,0.207289
785.123413,-0.050000,0.160078
785.156873,0.225000,0.253414
785.190333,-0.025000,0.138632
785.223792,0.700000,0.358818
785.257252,0.000000,0.093541
785.290711,0.050000,0.082916
785.324170,0.625000,0.198037
785.357629,-0.050000,0.326917
785.391087,-0.025000,0.041458
785.424545,-0.200000,0.206155
785.458003,-0.150000,0.167705
785.491460,-0.050000,0.167705
785.524918,0.425000,0.378112
785.558375,0.025000,0.198037
785.591831,-0.125000,0.184983
785.625288,-0.100000,0.117260
785.658744,0.175000,0.230149
785.692200,-0.125000,0.138632
785.725655,-0.150000,0.134629
785.759111,0.000000,0.203101
785.792566,0.025000,0.184983
785.826021,-0.150000,0.195256
785.859475,0.050000,0.129904
785.892930,0.125000,0.288043
785.926384,0.525000,0.064952
785.959837,0.425000,0.302851
785.993291,1.125000,0.207289
786.026744,3.550000,0.535607
786.060197,2.425000,0.653237
786.093649,-0.075000,0.324760
786.127102,-0.225000,0.174553
786.160554,-0.125000,0.207289
786.194006,-0.025000,0.230149
786.227457,-0.050000,0.225000
786.260909,-0.025000,0.213234
786.294360,0.150000,0.108972
786.327810,-0.075000,0.108253
786.361261,0.025000,0.216145
786.394711,-0.050000,0.248747
786.428161,0.175000,0.387903
786.461611,0.450000,0.251247
786.495060,0.325000,0.138632
786.528509,-0.200000,0.220794
786.561958,0.000000,0.176777
786.595407,-0.025000,0.201168
786.628855,0.100000,0.145774
786.662303,-0.250000,0.160078
786.695751,0.000000,0.122474
786.729198,-0.150000,0.213600
786.762645,0.050000,0.055902
786.796092,-0.225000,0.198037
786.829539,-0.125000,0.224653
786.862985,0.025000,0.260708
786.896431,-0.075000,0.143069
786.929877,0.025000,0.230149
786.963323,-0.025000,0.216145
786.996768,0.100000,0.209165
787.030213,-0.300000,0.145774
787.063658,-0.075000,0.216145
787.097102,-0.050000,0.188746
787.130547,-0.400000,0.250000
787.163991,-0.075000,0.383039
787.197434,0.150000,0.277263
787.230878,0.300000,0.257391
787.264321,0.050000,0.192029
787.297764,-0.125000,0.198037
787.331206,0.300000,0.183712
787.364648,0.500000,0.478278
787.398090,0.000000,0.176777
787.431532,0.275000,0.163459
787.464974,0.225000,0.265460
787.498415,-0.275000,0.276981
787.531856,-0.100000,0.183712
787.565296,-0.150000,0.025000
787.598737,0.200000,0.203101
787.632177,0.275000,0.300780
787.665617,-0.325000,0.147373
787.699056,-0.025000,0.198037
787.732496,0.200000,0.127475
787.765935,0.675000,0.376456
787.799373,1.125000,0.181573
787.832812,4.050000,0.649519
787.866250,6.000000,0.819298
787.899688,4.100000,0.217945
787.933126,2.550000,0.469707
787.966563,0.225000,0.245904
788.000000,0.200000,0.203101
788.033437,-0.150000,0.134629
788.066873,-0.025000,0.221853
788.100310,-0.075000,0.163459
788.133746,0.175000,0.263095
788.167181,0.175000,0.300780
788.200617,0.175000,0.227418
788.234052,0.025000,0.216145
788.267487,-0.325000,0.188331
788.300921,0.000000,0.220794
788.334356,0.225000,0.276981
788.367790,0.150000,0.235850
788.401224,-0.075000,0.155624
788.434657,-0.225000,0.170935
788.468090,0.125000,0.354216
788.501523,0.125000,0.201168
788.534956,0.200000,0.035355
788.568389,0.425000,0.170935
788.601821,-0.025000,0.227418
788.635253,0.350000,0.349106
788.668684,-0.000000,0.254951
788.702116,0.025000,0.235518
788.735547,0.150000,0.396074
788.768977,0.100000,0.079057
788.802408,0.025000,0.155624
788.835838,0.000000,0.196850
788.869268,-0.025000,0.138632
788.902698,-0.125000,0.174553
788.936127,-0.200000,0.176777
788.969556,-0.050000,0.230489
789.002985,0.125000,0.064952
789.036414,0.050000,0.219374
789.069842,-0.025000,0.147373
789.103270,0.050000,0.188746
789.136698,0.500000,0.293684
789.170125,0.350000,0.175000
789.203552,-0.025000,0.138632
789.236979,0.225000,0.245904
789.270406,-0.200000,0.203101
789.303832,0.125000,0.134048
789.337258,-0.175000,0.096014
789.370684,-0.025000,0.119242
789.404110,-0.050000,0.283945
789.437535,0.125000,0.143069
789.470960,0.500000,0.158114
789.504385,0.175000,0.064952
789.537809,0.025000,0.170935
789.571233,0.025000,0.155624
789.604657,0.125000,0.102317
789.638081,0.450000,0.371652
789.671504,2.075000,0.651321
789.704927,3.250000,0.230489
789.738350,8.250000,0.664737
789.771772,6.900000,0.460977
789.805195,2.700000,0.996870
789.838617,0.950000,0.487981
789.872038,0.200000,0.280624
789.905460,-0.775000,0.178098
789.938881,-0.050000,0.055902
789.972302,-0.150000,0.225000
790.005722,0.300000,0.206155
790.039143,0.050000,0.192029
790.072563,-0.050000,0.188746
790.105982,-0.175000,0.181573
790.139402,0.325000,0.159589
790.172821,-0.100000,0.369121
790.206240,0.050000,0.043301
790.239658,0.225000,0.151554
790.273077,0.050000,0.182003
790.306495,-0.125000,0.274716
790.339913,0.125000,0.270127
790.373330,0.125000,0.240767
790.406747,0.175000,0.304908
790.440164,-0.100000,0.187083
790.473581,0.525000,0.357727
790.506997,0.250000,0.422049
790.540414,-0.050000,0.175000
790.573829,0.200000,0.320156
790.607245,0.125000,0.181573
790.640660,0.150000,0.188746
790.674075,0.050000,0.251247
790.707490,-0.025000,0.224653
790.740904,0.100000,0.242384
790.774319,0.075000,0.167239
790.807733,0.200000,0.035355
790.841146,0.100000,0.165831
790.874560,-0.225000,0.302851
790.907973,0.025000,0.155624
790.941385,0.050000,0.167705
790.974798,-0.175000,0.216145
791.008210,0.075000,0.147373
791.041622,-0.275000,0.155624
791.075034,0.150000,0.283945
791.108445,0.050000,0.301040
791.141856,0.225000,0.064952
791.175267,0.100000,0.122474
791.208678,0.175000,0.159589
791.242088,0.400000,0.348210
791.275498,-0.125000,0.170935
791.308908,0.250000,0.343693
791.342317,0.075000,0.174553
791.375726,0.025000,0.235518
791.409135,0.350000,0.279508
791.442544,-0.450000,0.227761
791.475952,1.175000,0.477461
791.509360,1.275000,0.460129
791.542768,3.975000,0.736864
791.576176,11.950000,1.522539
791.609583,20.025000,1.564199
791.642990,17.325000,0.991448
791.676396,8.625000,0.765159
791.709803,1.225000,0.281458
791.743209,0.850000,0.432290
791.776615,0.225000,0.304908
791.810020,-0.200000,0.173205
791.843425,-0.025000,0.227418
791.876830,-0.325000,0.267804
791.910235,0.725000,0.655148
791.943640,-0.300000,0.203101
791.977044,-0.150000,0.195256
792.010448,-0.075000,0.163459
792.043851,-0.025000,0.235518
792.077254,0.150000,0.201556
792.110658,-0.075000,0.216145
792.144060,0.250000,0.082916
792.177463,-0.225000,0.221853
792.210865,0.000000,0.079057
792.244267,0.100000,0.209165
792.277668,0.000000,0.187083
792.311070,0.050000,0.175000
792.344471,0.475000,0.364649
792.377872,-0.050000,0.256174
792.411272,0.175000,0.188331
792.444672,0.150000,0.143614
792.478072,0.100000,0.257391
792.511472,0.075000,0.235518
792.544871,0.200000,0.162019
792.578271,0.150000,0.286138
792.611669,0.500000,0.314245
792.645068,-0.050000,0.175000
792.678466,-0.350000,0.125000
792.711864,0.650000,0.309233
792.745262,-0.075000,0.255869
792.778659,0.075000,0.064952
792.812056,-0.200000,0.150000
792.845453,0.750000,0.396074
792.878850,-0.025000,0.129301
792.912246,0.175000,0.170935
792.945642,0.250000,0.090139
792.979038,-0.050000,0.188746
793.012433,0.325000,0.181573
793.045829,0.250000,0.225000
793.079223,-0.250000,0.167705
793.112618,-0.300000,0.209165
793.146012,0.225000,0.294480
793.179406,0.225000,0.288043
793.212800,-0.025000,0.073951
793.246194,0.200000,0.217945
793.279587,0.300000,0.070711
793.312980,0.100000,0.196850
793.346373,0.225000,0.359470
793.379765,1.950000,0.629980
793.413157,5.050000,0.687841
793.446549,10.475000,0.491649
793.479940,17.875000,1.138187
793.513332,16.000000,0.621490
793.546723,7.925000,1.275429
793.580113,3.325000,0.886972
793.613504,1.025000,0.300780
793.646894,0.150000,0.341870
793.680284,0.300000,0.061237
793.713673,0.125000,0.391112
793.747062,-0.075000,0.248433
793.780451,-0.200000,0.176777
793.813840,0.550000,0.334477
793.847228,0.200000,0.196850
793.880617,0.000000,0.117260
793.914004,0.075000,0.204252
793.947392,-0.350000,0.143614
793.980779,-0.150000,0.134629
794.014166,0.125000,0.288043
794.047553,0.125000,0.255869
794.080940,0.150000,0.248747
794.114326,-0.175000,0.267804
794.147712,0.000000,0.106066
794.181097,-0.125000,0.174553
794.214483,0.175000,0.283670
794.247868,0.100000,0.237171
794.281252,-0.200000,0.173205
794.314637,-0.275000,0.181573
794.348021,0.200000,0.306186
794.381405,0.150000,0.160078
794.414788,0.000000,0.162019
794.448172,0.075000,0.064952
794.481555,-0.150000,0.192029
794.514938,-0.025000,0.124373
794.548320,-0.100000,0.209165
794.581702,0.025000,0.188331
794.615084,0.175000,0.258300
794.648466,-0.100000,0.176777
794.681847,0.400000,0.035355
794.715228,-0.550000,0.261008
794.748609,-0.125000,0.308980
794.781990,-0.075000,0.355976
794.815370,0.125000,0.143069
794.848750,0.325000,0.608661
794.882129,-0.300000,0.180278
794.915509,0.175000,0.207289
794.948888,-0.475000,0.178098
794.982267,0.300000,0.061237
795.015645,0.075000,0.240767
795.049023,0.175000,0.147373
795.082401,0.375000,0.219018
795.115779,0.025000,0.300780
795.149156,0.025000,0.201168
795.182534,0.325000,0.147373
795.215910,0.600000,0.244949
795.249287,1.325000,0.294480
795.282663,6.275000,1.270027
795.316039,14.975000,1.280808
795.349415,28.000000,1.508310
795.382790,33.133333,0.548103
795.416165,25.150000,1.679844
795.449540,6.750000,0.884944
795.482915,2.025000,0.782125
795.516289,0.425000,0.285865
795.549663,0.275000,0.395877
795.583037,0.050000,0.043301
795.616410,0.250000,0.251247
795.649783,-0.050000,0.175000
795.683156,0.025000,0.184983
795.716529,0.050000,0.129904
795.749901,0.100000,0.079057
795.783273,0.175000,0.302851
795.816645,-0.150000,0.270416
795.850016,-0.075000,0.210283
795.883387,0.050000,0.296859
795.916758,-0.125000,0.108253
795.950129,-0.100000,0.162019
795.983499,-0.050000,0.134629
796.016869,-0.100000,0.302076
796.050239,-0.450000,0.207666
796.083608,0.200000,0.169558
796.116977,0.050000,0.103078
796.150346,-0.050000,0.134629
796.183714,0.300000,0.302076
796.217083,0.225000,0.224653
796.250451,-0.050000,0.480234
796.283818,0.000000,0.187083
796.317186,0.000000,0.061237
796.350553,0.250000,0.230489
796.383920,-0.325000,0.159589
796.417286,0.450000,0.292617
796.450653,0.075000,0.276981
796.484019,0.075000,0.227418
796.517384,0.150000,0.258602
796.550750,0.475000,0.405239
796.584115,0.150000,0.160078
796.617480,0.050000,0.160078
796.650844,0.000000,0.150000
796.684209,-0.025000,0.054486
796.717573,-0.025000,0.167239
796.750936,0.350000,0.182003
796.784300,0.150000,0.163936
796.817663,-0.100000,0.206155
796.851026,0.050000,0.167705
796.884388,-0.300000,0.145774
796.917751,0.100000,0.229129
796.951113,-0.125000,0.155624
796.984474,0.050000,0.219374
797.017836,0.550000,0.343693
797.051197,-0.100000,0.266927
797.084558,-0.200000,0.150000
797.117918,0.850000,0.389711
797.151279,0.775000,0.108253
797.184639,9.450000,1.005920
797.217998,20.650000,1.932130
797.251358,33.133333,0.614749
797.284717,44.075000,1.347393
797.318076,25.000000,2.391391
797.351434,6.750000,0.570636
797.384793,2.050000,0.303109
797.418151,0.625000,0.288043
797.451508,0.250000,0.216506
797.484866,-0.025000,0.170935
797.518223,0.575000,0.151554
797.551580,-0.200000,0.209165
797.584936,0.200000,0.289396
797.618292,0.300000,0.463681
797.651648,-0.100000,0.176777
797.685004,-0.275000,0.102317
797.718360,0.150000,0.143614
797.751715,0.600000,0.093541
797.785069,-0.050000,0.143614
797.818424,-0.100000,0.231840
797.851778,0.150000,0.219374
797.885132,0.075000,0.588828
797.918486,0.375000,0.151554
797.951839,0.225000,0.308980
797.985192,0.075000,0.263095
798.018545,0.275000,0.328586
798.051898,0.175000,0.124373
798.085250,0.225000,0.054486
798.118602,0.025000,0.288043
798.151954,0.025000,0.207289
798.185305,0.325000,0.373120
798.218656,0.025000,0.178098
798.252007,0.825000,0.314990
798.285357,0.250000,0.248747
798.318708,-0.075000,0.235518
798.352057,0.750000,0.450694
798.385407,0.300000,0.122474
798.418756,-0.100000,0.203101
798.452106,0.275000,0.283670
798.485454,0.100000,0.250000
798.518803,0.625000,0.294480
798.552151,0.225000,0.283670
798.585499,0.350000,0.103078
798.618847,-0.025000,0.174553
798.652194,0.300000,0.318198
798.685541,0.525000,0.308980
798.718888,0.125000,0.216145
798.752234,0.075000,0.213234
798.785580,0.200000,0.162019
798.818926,0.225000,0.255869
798.852272,0.325000,0.270127
798.885617,0.300000,0.183712
798.918962,0.775000,0.341641
798.952307,0.125000,0.240767
798.985651,0.400000,0.111803
799.018996,0.925000,0.314990
799.052339,1.975000,0.384667
799.085683,13.250000,0.834041
799.119026,27.450000,2.419840
799.152369,54.200000,1.645828
799.185712,74.125000,2.556456
799.219054,41.725000,3.470298
799.252397,16.150000,1.939878
799.285738,1.625000,0.238157
799.319080,0.625000,0.537791
799.352421,0.350000,0.207666
799.385762,0.375000,0.129301
799.419103,-0.175000,0.155624
799.452443,0.225000,0.064952
799.485783,0.700000,0.418330
799.519123,0.075000,0.163459
799.552463,0.000000,0.127475
799.585802,-0.025000,0.147373
799.619141,-0.050000,0.248747
799.652480,0.125000,0.308980
799.685818,-0.175000,0.198037
799.719156,0.400000,0.266927
799.752494,0.275000,0.138632
799.785831,0.250000,0.340037
799.819169,0.200000,0.079057
799.852506,0.100000,0.291548
799.885842,0.150000,0.334477
799.919179,-0.150000,0.160078
799.952515,0.325000,0.304908
799.985850,0.300000,0.127475
800.019186,0.075000,0.324760
800.052521,0.550000,0.309233
800.085856,0.225000,0.296595
800.119191,0.800000,0.443001
800.152525,0.400000,0.136931
800.185859,0.325000,0.248433
800.219193,0.250000,0.082916
800.252526,0.600000,0.282843
800.285859,0.325000,0.245904
800.319192,0.275000,0.178098
800.352525,0.500000,0.165831
800.385857,0.075000,0.274716
800.419189,0.300000,0.150000
800.452521,0.700000,0.180278
800.485852,0.650000,0.235850
800.519183,-0.150000,0.261008
800.552514,0.350000,0.230489
800.585844,-0.350000,0.207666
800.619175,0.875000,0.096014
800.652505,0.300000,0.231840
800.685834,0.125000,0.124373
800.719164,0.075000,0.272431
800.752493,0.475000,0.397453
800.785821,0.725000,0.302851
800.819150,0.275000,0.143069
800.852478,0.300000,0.035355
800.885806,0.550000,0.219374
800.919134,0.900000,0.217945
800.952461,2.125000,0.604540
800.985788,16.525000,1.561800
801.019115,56.133333,2.313367
801.052441,120.566667,1.311647
801.085767,178.566667,6.274187
801.119093,163.800000,5.713908
801.152419,55.050000,2.005773
801.185744,13.200000,0.443001
801.219069,2.125000,0.923563
801.252394,0.375000,0.283670
801.285718,0.175000,0.198037
801.319042,0.575000,0.337963
801.352366,0.225000,0.124373
801.385690,0.400000,0.289396
801.419013,-0.100000,0.247487
801.452336,-0.200000,0.310242
801.485658,-0.350000,0.321131
801.518981,1.275000,0.397453
801.552303,0.150000,0.175000
801.585625,0.000000,0.176777
801.618946,0.100000,0.237171
801.652267,0.125000,0.198037
801.685588,0.100000,0.237171
801.718909,0.175000,0.213234
801.752229,0.450000,0.235850
801.785549,0.100000,0.162019
801.818869,0.100000,0.173205
801.852188,-0.100000,0.231840
801.885507,0.875000,0.470870
801.918826,0.275000,0.174553
801.952145,-0.200000,0.206155
801.985463,0.650000,0.309233
802.018781,0.725000,0.480072
802.052099,0.750000,0.414578
802.085416,0.550000,0.403887
802.118733,0.175000,0.219018
802.152050,0.350000,0.219374
802.185366,0.175000,0.250936
802.218683,-0.100000,0.176777
802.251999,0.125000,0.155624
802.285314,-0.350000,0.075000
802.318630,0.275000,0.143069
802.351945,0.325000,0.423342
802.385259,0.275000,0.260708
802.418574,0.425000,0.263095
802.451888,0.475000,0.359470
802.485202,0.400000,0.403113
802.518515,0.150000,0.251247
802.551829,0.525000,0.155624
802.585142,0.550000,0.283945
802.618454,0.400000,0.285044
802.651767,0.275000,0.213234
802.685079,-0.125000,0.341641
802.718391,0.400000,0.061237
802.751702,-0.100000,0.266927
802.785013,0.625000,0.408312
802.818324,0.625000,0.248433
802.851635,1.725000,0.304908
802.884945,5.700000,0.475657
802.918255,34.900000,1.611288
802.951565,104.150000,3.943745
802.984874,194.425000,5.437988
803.018184,268.750000,2.471209
803.051492,162.433333,3.157597
803.084801,35.400000,1.681889
803.118109,8.000000,0.648074
803.151417,1.350000,0.391312
803.184725,1.100000,0.297909
803.218032,0.325000,0.064952
803.251339,1.150000,0.277263
803.284646,0.350000,0.055902
803.317953,0.300000,0.314245
803.351259,-0.325000,0.155624
803.384565,0.550000,0.188746
803.417870,0.200000,0.282843
803.451176,0.125000,0.248433
803.484481,0.200000,0.266927
803.517786,0.375000,0.267804
803.551090,0.175000,0.113880
803.584394,0.225000,0.113880
803.617698,0.075000,0.216145
803.651002,1.075000,0.530772
803.684305,0.200000,0.100000
803.717608,0.325000,0.263095
803.750910,-0.050000,0.025000
803.784213,0.250000,0.207666
803.817515,0.525000,0.304908
803.850817,0.425000,0.361205
803.884118,0.450000,0.251247
803.917419,1.125000,0.274716
803.950720,0.900000,0.314245
803.984021,0.550000,0.357946
804.017321,0.750000,0.354436
804.050621,0.700000,0.496236
804.083921,0.325000,0.324760
804.117220,0.500000,0.382426
804.150519,0.300000,0.257391
804.183818,0.425000,0.178098
804.217117,0.450000,0.305164
804.250415,0.225000,0.108253
804.283713,0.575000,0.194856
804.317011,0.750000,0.294746
804.350308,0.550000,0.225000
804.383605,0.525000,0.272431
804.416902,0.325000,0.151554
804.450198,0.650000,0.258602
804.483494,0.450000,0.195256
804.516790,0.525000,0.201168
804.550086,0.125000,0.227418
804.583381,0.500000,0.289396
804.616676,0.575000,0.245904
804.649971,0.400000,0.242384
804.683265,0.725000,0.267804
804.716559,-0.100000,0.035355
804.749853,0.875000,0.155624
804.783146,1.975000,0.593059
804.816440,8.525000,0.619854
804.849732,45.750000,1.732592
804.883025,147.175000,1.564199
804.916317,283.450000,2.888230
804.949609,388.750000,13.217247
804.982901,227.700000,5.214163
805.016192,52.133333,0.877734
805.049484,9.350000,0.123744
805.082774,2.775000,0.542419
805.116065,0.525000,0.129301
805.149355,0.525000,0.472196
805.182645,0.250000,0.268095
805.215935,0.800000,0.295804
805.249224,0.625000,0.178098
805.282513,0.800000,0.280624
805.315802,0.375000,0.290205
805.349090,0.575000,0.129301
805.382378,0.375000,0.359470
805.415666,0.925000,0.108253
805.448954,0.225000,0.108253
805.482241,-0.200000,0.242384
805.515528,0.425000,0.167239
805.548815,0.600000,0.244949
805.582101,0.525000,0.147373
805.615387,0.600000,0.393700
805.648673,0.525000,0.143069
805.681958,-0.050000,0.160078
805.715243,0.925000,0.548150
805.748528,0.650000,0.160078
805.781813,1.000000,0.257391
805.815097,1.300000,0.462331
805.848381,0.500000,0.418330
805.881665,0.650000,0.225000
805.914948,1.475000,0.235518
805.948231,0.625000,0.119242
805.981514,0.200000,0.220794
806.014796,0.750000,0.175000
806.048079,0.800000,0.145774
806.081360,0.650000,0.311247
806.114642,1.225000,0.548150
806.147923,0.725000,0.421863
806.181204,1.150000,0.301040
806.214485,0.700000,0.688295
806.247765,0.275000,0.167239
806.281046,0.325000,0.201168
806.314325,0.675000,0.198037
806.347605,1.025000,0.300780
806.380884,0.150000,0.539096
806.414163,1.150000,0.388104
806.447441,0.450000,0.182003
806.480720,0.500000,0.320156
806.513998,0.675000,0.285865
806.547275,0.650000,0.201556
806.580553,1.125000,0.191621
806.613830,1.325000,0.302851
806.647107,0.975000,0.357727
806.680383,2.250000,0.823483
806.713659,2.300000,0.425735
806.746935,6.166667,0.378043
806.780211,51.175000,1.844714
806.813486,235.175000,5.099801
806.846761,496.650000,10.037710
806.880036,704.450000,4.862163
806.913310,564.166667,8.560106
806.946584,148.000000,2.352924
806.979858,30.375000,1.445413
807.013132,5.525000,0.801073
807.046405,1.875000,0.392707
807.079678,1.325000,0.174553
807.112951,0.900000,0.215058
807.146223,0.725000,0.108253
807.179495,0.650000,0.311247
807.212767,0.025000,0.314990
807.246038,0.775000,0.188331
807.279309,0.400000,0.187083
807.312580,0.550000,0.143614
807.345850,0.200000,0.262202
807.379121,1.350000,0.766893
807.412390,0.450000,0.182003
807.445660,0.500000,0.215058
807.478929,0.550000,0.292617
807.512198,0.400000,0.231840
807.545467,0.150000,0.357946
807.578735,0.450000,0.147902
807.612004,-0.175000,0.300780
807.645271,1.150000,0.305164
807.678539,0.450000,0.340037
807.711806,0.500000,0.154110
807.745073,0.300000,0.117260
807.778340,1.275000,0.163459
807.811606,1.575000,0.230149
807.844872,1.200000,0.093541
807.878138,1.525000,0.550426
807.911403,0.450000,0.334477
807.944668,0.975000,0.198037
807.977933,0.925000,0.308980
808.011197,0.900000,0.254951
808.044462,1.300000,0.382426
808.077725,1.325000,0.348882
808.110989,0.800000,0.374166
808.144252,1.675000,0.355976
808.177515,1.125000,0.304908
808.210778,0.800000,0.176777
808.244040,1.125000,0.492919
808.277302,1.225000,0.468208
808.310564,1.100000,0.465027
808.343826,1.275000,0.138632
808.377087,1.025000,0.198037
808.410348,1.425000,0.443530
808.443608,1.900000,0.000000
808.476869,0.675000,0.361205
808.510129,0.825000,0.113880
808.543388,1.525000,0.265460
808.576648,1.550000,0.305164
808.609907,2.050000,0.251247
808.643165,2.475000,0.451906
808.676424,5.150000,0.668487
808.709682,28.275000,1.528224
808.742940,180.525000,7.047462
808.776197,616.625000,7.814520
808.809455,1024.850000,11.889780
808.842712,1132.800000,13.902608
808.875968,603.450000,12.181210
808.909225,111.275000,4.718365
808.942481,18.966667,0.938305
808.975736,4.450000,0.738664
809.008992,2.900000,0.266927
809.042247,1.075000,0.064952
809.075502,1.000000,0.215058
809.108756,0.725000,0.634798
809.142011,1.150000,0.055902
809.175265,1.350000,0.427931
809.208518,1.450000,0.225000
809.241772,1.250000,0.425000
809.275025,1.550000,0.583631
809.308277,0.900000,0.262202
809.341530,0.825000,0.255869
809.374782,1.450000,0.413068
809.408034,1.275000,0.424816
809.441285,0.750000,0.447912
809.474536,0.550000,0.296859
809.507787,1.450000,0.361421
809.541038,1.100000,0.061237
809.574288,1.050000,0.296859
809.607538,1.300000,0.306186
809.640788,1.100000,0.306186
809.674037,2.075000,0.499218
809.707286,1.100000,0.220794
809.740535,1.650000,0.445112
809.773783,1.625000,0.276981
809.807032,2.350000,0.557337
809.840279,2.425000,0.429207
809.873527,2.250000,0.357946
809.906774,2.600000,0.437321
809.940021,1.725000,0.216145
809.973268,2.150000,0.082916
810.006514,1.800000,0.322102
810.039760,1.425000,0.108253
810.073006,1.725000,0.216145
810.106251,2.700000,0.606218
810.139497,2.625000,0.354216
810.172741,2.400000,0.150000
810.205986,2.825000,0.292350
810.239230,2.050000,0.336341
810.272474,4.500000,0.501248
810.305718,2.950000,0.396074
810.338961,3.800000,0.796084
810.372204,2.700000,0.358818
810.405447,2.700000,0.445814
810.438689,3.525000,0.359470
810.471931,3.575000,0.339807
810.505173,4.250000,0.453459
810.538414,4.650000,0.396074
810.571656,7.200000,0.372492
810.604897,9.775000,0.768420
810.638137,13.766667,0.163299
810.671377,72.675000,1.707474
810.704617,440.750000,9.845653
810.737857,1369.975000,23.153304
810.771096,1992.725000,6.422361
810.804335,1921.275000,25.957378
810.837574,1006.650000,17.054930
810.870813,140.000000,2.216698
810.904051,31.475000,1.420992
810.937288,4.575000,0.820347
810.970526,2.125000,0.392707
811.003763,1.675000,0.374792
811.037000,0.975000,0.617834
811.070237,1.000000,0.717635
811.103473,0.650000,0.661910
811.136709,0.375000,0.533122
811.169945,0.200000,0.093541
811.203180,0.425000,0.362931
811.236415,0.575000,0.402143
811.269650,0.250000,0.251247
811.302884,-0.150000,0.321131
811.336119,0.050000,0.397649
811.369352,0.425000,0.652280
811.402586,1.600000,0.302076
811.435819,1.600000,0.744983
811.469052,2.125000,0.901648
811.502285,2.025000,0.811923
811.535517,0.650000,1.240212
811.568749,1.825000,0.940993
811.601981,1.875000,0.578117
811.635212,0.225000,0.204252
811.668443,0.975000,0.298695
811.701674,0.950000,0.163936
811.734905,1.000000,0.645174
811.768135,1.475000,0.290205
811.801365,2.925000,0.216145
811.834594,1.950000,0.413068
811.867824,1.000000,0.470372
811.901053,1.075000,0.232849
811.934281,-0.250000,0.114564
811.967510,0.250000,0.043301
812.000738,1.075000,0.362931
812.033965,0.525000,0.357727
812.067193,0.975000,0.288043
812.100420,0.450000,0.326917
812.133647,0.675000,0.478768
812.166873,-0.175000,0.178098
812.200099,0.125000,0.240767
812.233325,0.333333,0.414327
812.266551,0.300000,0.176777
812.299776,1.000000,0.289396
812.333001,0.625000,0.230149
812.366226,0.425000,0.129301
812.399450,0.500000,0.344601
812.432674,0.425000,0.437857
812.465898,-0.400000,0.154110
812.499121,0.650000,0.256174
812.532345,0.675000,0.354216
812.565567,1.675000,0.657053
812.598790,2.225000,0.272431
812.632012,11.666667,0.540062
812.665234,103.500000,3.675765
812.698456,443.575000,6.228802
812.731677,738.500000,17.833746
812.764898,775.625000,10.668433
812.798119,436.000000,9.596940
812.831339,65.666667,3.708155
812.864559,11.800000,0.308221
812.897779,3.275000,0.630848
812.930998,0.950000,0.544862
812.964217,0.875000,0.240767
812.997436,-0.175000,0.283670
813.030655,0.700000,0.257391
813.063873,0.650000,0.449305
813.097091,0.050000,0.075000
813.130308,-0.325000,0.255869
813.163526,0.350000,0.143614
813.196743,-0.025000,0.054486
813.229959,0.200000,0.318198
813.263176,0.350000,0.134629
813.296392,-0.400000,0.176777
813.329607,0.000000,0.324037
813.362823,0.350000,0.319179
813.396038,0.050000,0.219374
813.429253,0.175000,0.163459
813.462467,-0.225000,0.216145
813.495682,-0.150000,0.134629
813.528895,0.250000,0.361421
813.562109,-0.125000,0.073951
813.595322,0.175000,0.155624
813.628535,0.375000,0.138632
813.661748,-0.175000,0.096014
813.694960,0.150000,0.207666
813.728172,0.025000,0.147373
813.761384,-0.025000,0.041458
813.794596,-0.650000,0.160078
813.827807,-0.525000,0.184983
813.861017,-0.150000,0.227761
813.894228,0.550000,0.207666
813.927438,0.450000,0.213600
813.960648,0.525000,0.232849
813.993858,-0.075000,0.194856
814.027067,0.600000,0.217945
814.060276,0.225000,0.119242
814.093485,0.025000,0.134048
814.126693,0.300000,0.506211
814.159901,-0.225000,0.194856
814.193109,-0.350000,0.349106
814.226316,0.175000,0.232849
814.259523,0.700000,0.492443
814.292730,1.150000,0.261008
814.325936,1.250000,0.683283
814.359143,0.425000,0.443530
814.392348,-0.050000,0.108972
814.425554,-0.275000,0.243349
814.458759,0.025000,0.155624
814.491964,0.100000,0.229129
814.525169,0.425000,0.366359
814.558373,0.800000,0.568990
814.591577,0.275000,0.174553
814.624781,0.500000,0.443001
814.657984,1.500000,0.682825
