#{
#    "background_file": "Backgrounds\\\\bg_785.995nm_13bin_219st_244en_10.0s_110g_4x_13_seq.txt",
#    "ccd_image_settings": [
#        1,
#        13,
#        1,
#        1600,
#        219,
#        244
#    ],
#    "ccd_temperature": "-87",
#    "cdRatios": {
#        "mean": 0.9416307368412034,
#        "std": 0.01194981505645508
#    },
#    "center_lambda": 786.0,
#    "comments": "",
#    "dark_region": 24.69433382465684,
#    "date": "10/22/20 16:51:50PM",
#    "eff_field": 1.5,
#    "exposure": 10.0,
#    "fel_lambda": "15.0",
#    "fel_pol": "H",
#    "fel_pulses": 42,
#    "fel_pyro_cal": "0.012",
#    "fel_reprate": "1.07",
#    "fel_transmission": "1.0",
#    "fel_transmission_fits": {
#        "A": 1.0,
#        "C": 0.0,
#        "Mu": 0.0
#    },
#    "fieldInt": {
#        "mean": 5309.731015151516,
#        "std": 232.43858076321797
#    },
#    "fieldStrength": {
#        "mean": 33.41905492424242,
#        "std": 0.7674505743303282
#    },
#    "fpTime": {
#        "mean": 1.0715055599779153,
#        "std": 0.1013387248760124
#    },
#    "gain": 110,
#    "grating": 3,
#    "images_in_sequence": [
#        "hsg_820nm_c123_am45_HAna401.txt",
#        "hsg_820nm_c123_am45_HAna402.txt",
#        "hsg_820nm_c123_am45_HAna403.txt",
#        "hsg_820nm_c123_am45_HAna404.txt"
#    ],
#    "nir_lambda": "819.98",
#    "nir_pola": "-45",
#    "nir_polg": "0",
#    "nir_power": "100.0",
#    "pulseEnergies": {
#        "mean": 1.6295416666666667,
#        "std": 0.08067351755437377
#    },
#    "pyroVoltage": {
#        "mean": 0.14433466156638636,
#        "std": 0.008288190352752743
#    },
#    "rotatorAngle": 22.499996337881683,
#    "sample_Temp": "55",
#    "sample_name": "L001218.C1",
#    "series": "820_Fan",
#    "slits": "60",
#    "spec_step": "",
#    "window_trans": 0.92,
#    "y_max": 2,
#    "y_min": 1
#}
#
#
#
#
#
#
#
#
#
#
#
#
#
#
#
#
#
#
#
#
#
#
#
#
#
#
Wavelength,Signal,error
nm,arb. u.,arb.u.
Wavelength,820_Fan,error
759.194366,0.075000,0.101251
759.228015,0.040909,0.077440
759.261663,-0.025000,0.067831
759.295311,0.090909,0.127920
759.328959,0.113636,0.059047
759.362607,0.025000,0.063260
759.396254,0.138636,0.284869
759.429901,-0.113636,0.068823
759.463548,0.324242,0.085401
759.497194,-0.050000,0.053926
759.530841,0.259091,0.066688
759.564487,0.263636,0.108806
759.598133,0.181818,0.191881
759.631779,0.345455,0.244865
759.665424,0.140909,0.080321
759.699069,-0.100000,0.069160
759.732714,0.650000,0.230107
759.766359,0.393182,0.205085
759.800003,0.695455,0.170848
759.833648,0.961364,0.379299
759.867292,0.456818,0.504938
759.900935,0.043182,0.085484
759.934579,0.745455,0.379987
759.968222,-0.140909,0.051975
760.001865,0.150000,0.144939
760.035508,0.138636,0.050347
760.069151,0.004545,0.091164
760.102793,0.243182,0.076963
760.136435,0.050000,0.081597
760.170077,0.147727,0.088044
760.203718,-0.072727,0.107901
760.237360,-0.300000,0.203736
760.271001,0.143182,0.089902
760.304642,0.313636,0.209301
760.338283,0.661364,0.429965
760.371923,-0.025000,0.094878
760.405563,0.202273,0.159751
760.439203,0.095455,0.077706
760.472843,0.627273,0.098700
760.506482,0.243182,0.299300
760.540122,0.263636,0.062490
760.573761,0.581818,0.162210
760.607399,0.531818,0.278602
760.641038,0.240909,0.263666
760.674676,0.315909,0.106957
760.708314,0.429545,0.114333
760.741952,0.029545,0.086446
760.775589,0.075000,0.189780
760.809227,0.147727,0.216527
760.842864,0.031061,0.049101
760.876501,-0.059091,0.168197
760.910137,0.525000,0.166713
760.943774,0.190909,0.047997
760.977410,-0.050000,0.075000
761.011046,0.220455,0.089672
761.044681,0.070455,0.038081
761.078317,0.095455,0.035428
761.111952,0.150000,0.107972
761.145587,0.270455,0.254959
761.179221,0.486364,0.528765
761.212856,-0.390909,0.142223
761.246490,0.404545,0.107301
761.280124,0.638636,0.612932
761.313758,0.140909,0.080321
761.347391,0.404545,0.107060
761.381024,0.438636,0.356295
761.414657,0.004545,0.067535
761.448290,0.547727,0.156022
761.481923,0.338636,0.233669
761.515555,-0.045455,0.039365
761.549187,0.340909,0.182767
761.582819,-0.118182,0.039886
761.616450,-0.247727,0.177371
761.650082,0.068182,0.242693
761.683713,0.300000,0.203101
761.717344,-0.265909,0.067678
761.750974,0.065909,0.273774
761.784605,-0.159091,0.099508
761.818235,0.425000,0.230149
761.851865,0.063636,0.166174
761.885494,-0.281818,0.062902
761.919124,0.700000,0.333433
761.952753,0.215909,0.055705
761.986382,1.006818,0.336200
762.020010,0.354545,0.121032
762.053639,0.302273,0.194006
762.087267,0.311364,0.069411
762.120895,0.059848,0.093746
762.154523,0.145455,0.114135
762.188150,-0.109091,0.105773
762.221777,0.790909,0.358097
762.255404,0.452273,0.232049
762.289031,0.122727,0.071184
762.322658,-0.095455,0.035428
762.356284,0.090909,0.084060
762.389910,-0.131818,0.160368
762.423536,0.113636,0.082478
762.457161,-0.022727,0.133357
762.490786,0.168182,0.022613
762.524411,-0.002273,0.075540
762.558036,-0.068182,0.059047
762.591661,0.118182,0.133183
762.625285,-0.334091,0.125036
762.658909,0.043182,0.052359
762.692533,0.577273,0.308129
762.726157,0.715909,0.433887
762.759780,0.188636,0.125860
762.793403,0.340909,0.174527
762.827026,0.495455,0.228395
762.860649,0.304545,0.124046
762.894271,0.459091,0.210997
762.927893,-0.093182,0.032201
762.961515,0.368182,0.277505
762.995137,0.377273,0.165285
763.028758,0.293182,0.081968
763.062379,0.343182,0.296508
763.096000,0.256818,0.111636
763.129621,0.911364,0.313972
763.163241,0.211364,0.114243
763.196862,0.118182,0.018464
763.230481,0.397727,0.149323
763.264101,0.309091,0.087905
763.297721,0.011364,0.172649
763.331340,0.118182,0.086064
763.364959,0.379545,0.263212
763.398578,0.211364,0.326726
763.432196,0.104545,0.147762
763.465814,0.134091,0.200087
763.499432,0.590909,0.244379
763.533050,0.220455,0.204959
763.566668,0.175000,0.170420
763.600285,-0.150000,0.127171
763.633902,0.650000,0.367669
763.667519,0.286364,0.006818
763.701135,-0.022727,0.040465
763.734752,-0.070455,0.020423
763.768368,0.486364,0.195336
763.801984,0.088636,0.107583
763.835599,0.577273,0.273115
763.869215,0.275000,0.184983
763.902830,-0.143182,0.024133
763.936444,-0.077273,0.085673
763.970059,-0.029545,0.070519
764.003673,0.140909,0.097727
764.037288,0.213636,0.039430
764.070901,0.215909,0.280944
764.104515,-0.090909,0.089995
764.138128,0.143182,0.089902
764.171742,0.000000,0.095563
764.205354,-0.052273,0.054391
764.238967,0.386364,0.096236
764.272580,-0.011364,0.144934
764.306192,0.313636,0.115641
764.339804,0.268182,0.205062
764.373415,0.268182,0.232141
764.407027,0.327273,0.186751
764.440638,0.088636,0.133313
764.474249,0.356818,0.249242
764.507860,-0.218182,0.072443
764.541470,0.090909,0.078730
764.575080,0.729545,0.551392
764.608690,0.152273,0.221317
764.642300,-0.156818,0.192455
764.675909,0.204545,0.204508
764.709519,0.404545,0.080385
764.743128,0.202273,0.135694
764.776736,0.327273,0.147745
764.810345,0.095455,0.047835
764.843953,0.036364,0.152527
764.877561,-0.140909,0.020455
764.911169,0.445455,0.133956
764.944776,0.020455,0.143466
764.978384,0.000000,0.070711
765.011991,0.825000,0.376222
765.045598,0.163636,0.050206
765.079204,0.440909,0.151047
765.112810,0.125000,0.088044
765.146416,0.113636,0.159367
765.180022,0.329545,0.068210
765.213628,0.304545,0.158293
765.247233,-0.095455,0.035428
765.280838,0.218182,0.123483
765.314443,0.118182,0.049061
765.348048,-0.077273,0.085673
765.381652,-0.222727,0.090081
765.415256,0.509091,0.363580
765.448860,0.170455,0.054106
765.482463,0.065909,0.254005
765.516067,0.190909,0.035646
765.549670,0.356818,0.156055
765.583273,-0.025000,0.038753
765.616875,0.150000,0.088927
765.650478,-0.004545,0.214878
765.684080,0.000000,0.064282
765.717682,-0.118182,0.073082
765.751283,-0.261364,0.098195
765.784885,0.015909,0.090703
765.818486,0.186364,0.085129
765.852087,0.468182,0.235608
765.885687,-0.035606,0.052622
765.919288,0.565909,0.327405
765.952888,0.109091,0.120433
765.986488,0.393182,0.156187
766.020087,-0.236364,0.039756
766.053687,0.140909,0.192217
766.087286,0.420455,0.168806
766.120885,0.038636,0.125160
766.154484,0.177273,0.132891
766.188082,0.170455,0.077631
766.221680,-0.038636,0.130256
766.255278,0.136364,0.117392
766.288876,-0.034091,0.136378
766.322473,-0.097727,0.035410
766.356070,0.097727,0.035410
766.389667,0.495455,0.319631
766.423264,-0.186364,0.064403
766.456860,0.459091,0.112563
766.490457,0.238636,0.090017
766.524053,0.120455,0.063748
766.557648,0.061364,0.152573
766.591244,0.329545,0.148490
766.624839,-0.043182,0.110940
766.658434,-0.020455,0.063667
766.692029,0.211364,0.069188
766.725623,0.375000,0.188331
766.759217,-0.018182,0.084060
766.792811,-0.356818,0.062106
766.826405,-0.238636,0.055705
766.859999,0.338636,0.111219
766.893592,0.197727,0.183750
766.927185,0.161364,0.076896
766.960777,-0.306818,0.046396
766.994370,0.072727,0.073785
767.027962,-0.143182,0.024133
767.061554,0.247727,0.163111
767.095146,0.020455,0.039414
767.128737,-0.290909,0.091419
767.162329,-0.243182,0.058509
767.195920,0.022727,0.040465
767.229510,0.361364,0.057530
767.263101,0.245455,0.109563
767.296691,0.336364,0.148477
767.330281,-0.065909,0.068588
767.363871,-0.340909,0.087049
767.397460,0.209091,0.103353
767.431050,0.293182,0.194723
767.464639,-0.018182,0.061237
767.498227,0.311364,0.110986
767.531816,0.113636,0.082478
767.565404,-0.479545,0.079861
767.598992,0.204545,0.232608
767.632580,0.150000,0.088927
767.666168,0.177273,0.161171
767.699755,0.420455,0.208556
767.733342,0.225000,0.143069
767.766929,0.161364,0.066679
767.800515,-0.072727,0.021076
767.834101,0.290909,0.094912
767.867687,0.386364,0.255952
767.901273,0.395455,0.188335
767.934859,-0.179545,0.145752
767.968444,0.079545,0.138594
768.002029,0.095455,0.124046
768.035614,0.204545,0.109398
768.069198,0.059091,0.142676
768.102783,-0.606818,0.156187
768.136367,0.311364,0.056442
768.169950,0.093182,0.092396
768.203534,0.154545,0.133066
768.237117,0.538636,0.221130
768.270700,0.143182,0.051464
768.304283,0.420455,0.242328
768.337866,-0.027273,0.149137
768.371448,0.434091,0.218238
768.405030,0.352273,0.276664
768.438612,0.445455,0.273219
768.472193,0.093182,0.032201
768.505775,0.190909,0.032461
768.539356,0.236364,0.079772
768.572936,0.156818,0.142490
768.606517,-0.165909,0.083714
768.640097,-0.168182,0.041969
768.673677,0.225000,0.206490
768.707257,-0.004545,0.059396
768.740836,0.188636,0.058685
768.774416,0.190909,0.035646
768.807995,-0.120455,0.039545
768.841574,0.170455,0.043524
768.875152,0.234091,0.048359
768.908730,-0.025000,0.038753
768.942308,0.020455,0.090475
768.975886,-0.052273,0.095691
769.009464,0.311364,0.041458
769.043041,0.452273,0.290347
769.076618,0.318182,0.124855
769.110195,0.150000,0.144939
769.143771,0.372727,0.214240
769.177348,0.245455,0.161155
769.210924,0.040909,0.118727
769.244499,0.159848,0.020757
769.278075,0.136364,0.093707
769.311650,0.168182,0.134014
769.345225,0.454545,0.120089
769.378800,0.890909,0.257210
769.412375,0.093182,0.032201
769.445949,-0.093182,0.059472
769.479523,0.270455,0.109109
769.513097,0.090909,0.078730
769.546670,0.240909,0.100026
769.580243,0.218182,0.114812
769.613816,0.311364,0.110986
769.647389,-0.188636,0.098195
769.680962,0.175000,0.240767
769.714534,-0.025000,0.063260
769.748106,0.281818,0.113682
769.781678,0.186364,0.053831
769.815249,-0.095455,0.032221
769.848820,-0.427273,0.013636
769.882391,-0.045455,0.022727
769.915962,0.090909,0.065948
769.949533,0.156818,0.171929
769.983103,0.068182,0.068823
770.016673,0.293182,0.309631
770.050243,0.304545,0.119118
770.083812,0.345455,0.513737
770.117381,0.215909,0.163206
770.150950,0.231818,0.122031
770.184519,0.206818,0.199467
770.218088,-0.002273,0.060334
770.251656,0.279545,0.224561
770.285224,-0.022727,0.040465
770.318791,0.345455,0.252406
770.352359,0.234091,0.109109
770.385926,0.186364,0.114519
770.419493,0.090909,0.078730
770.453060,-0.261364,0.037119
770.486626,0.411364,0.206440
770.520192,-0.079545,0.126922
770.553758,0.277273,0.115059
770.587324,0.175000,0.110004
770.620890,0.115909,0.049311
770.654455,0.286364,0.106285
770.688020,0.320455,0.249491
770.721584,0.506818,0.217479
770.755149,0.075000,0.041458
770.788713,-0.029545,0.089845
770.822277,0.136364,0.123273
770.855841,-0.134091,0.184508
770.889404,0.045455,0.042030
770.922967,0.004545,0.047727
770.956530,0.143182,0.055519
770.990093,0.015909,0.090703
771.023655,-0.225000,0.118329
771.057217,0.188636,0.125860
771.090779,0.390909,0.219103
771.124341,-0.375000,0.083529
771.157902,0.493182,0.131283
771.191463,0.761364,0.335416
771.225024,0.090909,0.055670
771.258585,-0.054545,0.103303
771.292145,0.243182,0.076963
771.325705,0.111364,0.096551
771.359265,0.500000,0.383963
771.392825,0.109091,0.153573
771.426384,0.161364,0.112741
771.459943,0.138636,0.093452
771.493502,0.184091,0.141289
771.527061,0.250000,0.138562
771.560619,-0.259091,0.078302
771.594177,0.372727,0.268394
771.627735,0.136364,0.141531
771.661293,0.222727,0.114519
771.694850,-0.238636,0.051664
771.728407,0.145455,0.027273
771.761964,0.043182,0.052359
771.795521,0.088636,0.107583
771.829077,0.234091,0.172439
771.862633,-0.122727,0.041845
771.896189,-0.125000,0.126555
771.929744,-0.190909,0.077806
771.963300,0.097727,0.035410
771.996855,0.443182,0.245483
772.030409,0.309091,0.154679
772.063964,0.372727,0.158863
772.097518,-0.261364,0.018568
772.131072,-0.125000,0.064952
772.164626,0.252273,0.199493
772.198180,0.027273,0.053203
772.231733,0.045455,0.022727
772.265286,0.061364,0.237005
772.298839,0.018182,0.104001
772.332391,0.002273,0.075540
772.365943,0.688636,0.203745
772.399495,0.322727,0.147307
772.433047,-0.154545,0.160030
772.466598,0.365909,0.308729
772.500150,0.250000,0.191463
772.533701,0.027273,0.039756
772.567251,-0.290909,0.072514
772.600802,0.111364,0.088629
772.634352,0.145455,0.075788
772.667902,0.140909,0.051975
772.701452,-0.004545,0.067535
772.735001,-0.143182,0.071753
772.768550,0.145455,0.055017
772.802099,-0.172727,0.108426
772.835648,0.022727,0.073399
772.869196,0.034091,0.164152
772.902744,-0.072727,0.061322
772.936292,0.206818,0.151623
772.969840,0.356818,0.110098
773.003387,0.145455,0.075788
773.036934,0.161364,0.123331
773.070481,0.286364,0.077971
773.104028,0.165909,0.037534
773.137574,-0.027273,0.053203
773.171120,-0.050000,0.077506
773.204666,0.247727,0.219771
773.238212,-0.090909,0.055670
773.271757,-0.095455,0.073399
773.305302,0.515909,0.086326
773.338847,0.286364,0.048265
773.372391,0.163636,0.035646
773.405936,0.059091,0.135242
773.439480,0.334091,0.313988
773.473024,0.090909,0.055670
773.506567,0.397727,0.131911
773.540110,-0.050000,0.081597
773.573653,-0.004545,0.067535
773.607196,0.075000,0.052458
773.640739,0.047727,0.071681
773.674281,-0.090909,0.086304
773.707823,0.315909,0.110940
773.741365,0.302273,0.124124
773.774906,0.093182,0.059472
773.808447,-0.045455,0.052911
773.841988,0.077273,0.131681
773.875529,0.000000,0.032141
773.909070,-0.336364,0.047565
773.942610,0.086364,0.185767
773.976150,0.075000,0.052458
774.009689,0.093182,0.032201
774.043229,-0.200000,0.122474
774.076768,0.154545,0.166453
774.110307,-0.227273,0.148894
774.143845,-0.043182,0.101200
774.177384,-0.115909,0.049311
774.210922,0.020455,0.063667
774.244460,0.070455,0.062850
774.277997,0.045455,0.022727
774.311535,0.140909,0.051975
774.345072,-0.004545,0.091164
774.378609,-0.404545,0.038903
774.412145,0.045455,0.080930
774.445682,-0.100000,0.081439
774.479218,0.240909,0.083102
774.512754,0.072727,0.061322
774.546289,-0.211364,0.073390
774.579824,-0.156818,0.109722
774.613359,0.022727,0.073399
774.646894,0.575000,0.249532
774.680429,-0.004545,0.087522
774.713963,0.395455,0.235521
774.747497,-0.047727,0.023918
774.781031,0.290909,0.123524
774.814564,-0.218182,0.072443
774.848097,0.120455,0.140225
774.881630,0.281818,0.081692
774.915163,0.090909,0.057586
774.948696,0.675000,0.152065
774.982228,0.525000,0.270643
775.015760,0.131818,0.154863
775.049291,0.161364,0.112741
775.082823,0.263636,0.134303
775.116354,0.050000,0.040719
775.149885,0.159091,0.137777
775.183416,-0.384091,0.040703
775.216946,-0.081818,0.219433
775.250476,0.261364,0.094222
775.284006,0.395455,0.131367
775.317535,-0.188636,0.074230
775.351065,-0.072727,0.073785
775.384594,-0.013636,0.195653
775.418123,0.422727,0.202094
775.451651,-0.120455,0.023038
775.485180,-0.386364,0.204128
775.518708,0.163636,0.067726
775.552235,0.363636,0.316897
775.585763,-0.050000,0.081597
775.619290,0.279545,0.069038
775.652817,0.122727,0.054782
775.686344,0.000000,0.047781
775.719870,0.020455,0.071320
775.753397,0.338636,0.252782
775.786923,-0.068182,0.087286
775.820448,-0.181818,0.119572
775.853974,0.388636,0.239390
775.887499,0.215909,0.090017
775.921024,0.304545,0.186820
775.954549,-0.113636,0.121394
775.988073,0.288636,0.038886
776.021597,0.700000,0.351473
776.055121,0.250000,0.182428
776.088645,0.045455,0.098228
776.122168,-0.027273,0.146903
776.155691,0.693182,0.316887
776.189214,-0.040909,0.070455
776.222737,0.188636,0.054864
776.256259,-0.031818,0.136117
776.289781,0.227273,0.175192
776.323303,0.222727,0.203546
776.356824,0.143182,0.071753
776.390346,0.236364,0.112310
776.423867,0.188636,0.098195
776.457387,-0.345455,0.132092
776.490908,0.054545,0.087019
776.524428,0.000000,0.077673
776.557948,-0.200000,0.138916
776.591468,0.159091,0.142241
776.624987,0.206818,0.152506
776.658506,0.265909,0.164561
776.692025,-0.075000,0.064952
776.725544,0.179545,0.152675
776.759062,0.143182,0.051464
776.792581,0.070455,0.038081
776.826099,0.238636,0.082471
776.859616,0.211364,0.069188
776.893134,0.088636,0.073320
776.926651,0.213636,0.088052
776.960167,0.297727,0.245315
776.993684,0.118182,0.018464
777.027200,0.147727,0.075404
777.060716,0.459091,0.136155
777.094232,0.045455,0.042030
777.127748,0.040909,0.077440
777.161263,0.320455,0.196177
777.194778,0.195455,0.201505
777.228293,0.252273,0.164530
777.261807,0.215909,0.068813
777.295322,0.220455,0.109581
777.328836,-0.336364,0.047565
777.362349,0.047727,0.023918
777.395863,0.429545,0.269706
777.429376,-0.075000,0.052458
777.462889,-0.115909,0.049311
777.496401,-0.047727,0.023918
777.529914,0.100000,0.086603
777.563426,0.015909,0.090703
777.596938,0.586364,0.260849
777.630449,0.068182,0.051676
777.663961,0.279545,0.116037
777.697472,0.072727,0.021076
777.730983,0.068182,0.137364
777.764493,-0.063636,0.197060
777.798004,0.334091,0.082658
777.831514,-0.309091,0.072656
777.865023,0.220455,0.139671
777.898533,0.115909,0.062438
777.932042,0.827273,0.237193
777.965551,0.202273,0.143105
777.999060,-0.256818,0.075266
778.032568,0.022727,0.019682
778.066076,0.090909,0.078730
778.099584,-0.029545,0.070519
778.133092,0.365909,0.157537
778.166599,0.250000,0.191166
778.200107,0.163636,0.157852
778.233613,-0.027273,0.060388
778.267120,-0.072727,0.073785
778.300626,0.659091,0.308179
778.334132,-0.190909,0.110922
778.367638,0.040909,0.101716
778.401144,0.531818,0.226784
778.434649,0.070455,0.062850
778.468154,0.190909,0.077806
778.501659,0.765909,0.250173
778.535163,0.145455,0.055017
778.568668,0.093182,0.032201
778.602172,0.234091,0.109109
778.635675,-0.354545,0.077473
778.669179,0.163636,0.050206
778.702682,0.268182,0.133860
778.736185,0.525000,0.246680
778.769688,0.334091,0.114152
778.803190,-0.052273,0.070884
778.836692,0.268182,0.148495
778.870194,0.052273,0.054391
778.903696,0.247727,0.160622
778.937197,0.518182,0.260681
778.970698,0.188636,0.074230
779.004199,0.188636,0.125860
779.037699,-0.168182,0.087049
779.071200,0.075000,0.076492
779.104700,-0.070455,0.038081
779.138199,0.120455,0.068286
779.171699,0.400000,0.213031
779.205198,0.120455,0.095204
779.238697,0.320455,0.196177
779.272196,0.600000,0.308472
779.305694,0.170455,0.092340
779.339192,-0.006818,0.114874
779.372690,0.165909,0.088746
779.406188,0.347727,0.105449
779.439685,-0.040909,0.142640
779.473182,-0.056818,0.149323
779.506679,0.429545,0.125201
779.540176,0.595455,0.454278
779.573672,-0.236364,0.051124
779.607168,0.313636,0.058077
779.640664,0.268182,0.067840
779.674160,0.154545,0.127718
779.707655,0.045455,0.113135
779.741150,0.122727,0.114022
779.774644,0.088636,0.099709
779.808139,0.406818,0.111404
779.841633,0.068182,0.037689
779.875127,0.043182,0.072398
779.908621,0.113636,0.104570
779.942114,-0.111364,0.123916
779.975607,0.381818,0.227931
780.009100,-0.234091,0.048359
780.042593,0.188636,0.074230
780.076085,-0.263636,0.042882
780.109577,-0.002273,0.033767
780.143069,0.290909,0.164643
780.176560,0.093182,0.032201
780.210052,-0.145455,0.044652
780.243543,-0.047727,0.089845
780.277033,0.347727,0.308997
780.310524,-0.268182,0.081660
780.344014,-0.063636,0.109327
780.377504,0.081818,0.193996
780.410994,-0.154545,0.131701
780.444483,0.209091,0.101487
780.477972,0.120455,0.063748
780.511461,0.261364,0.130929
780.544950,0.011364,0.233624
780.578438,0.218182,0.083258
780.611926,0.088636,0.086266
780.645414,0.068182,0.059047
780.678902,0.677273,0.248435
780.712389,0.170455,0.043524
780.745876,0.175000,0.110004
780.779363,0.263636,0.143488
780.812849,-0.095455,0.073399
780.846335,-0.193182,0.062272
780.879821,0.643182,0.447483
780.913307,0.484091,0.239476
780.946792,0.481818,0.166205
780.980277,0.184091,0.084451
781.013762,-0.031818,0.140450
781.047247,0.165909,0.139301
781.080731,0.590909,0.232641
781.114215,0.070455,0.128258
781.147699,0.243182,0.135732
781.181183,0.415909,0.289848
781.214666,0.545455,0.364261
781.248149,0.393182,0.233580
781.281632,0.509091,0.265744
781.315114,0.636364,0.417836
781.348596,0.256818,0.111636
781.382078,0.147727,0.075404
781.415560,0.045455,0.068182
781.449041,-0.122727,0.082165
781.482522,0.234091,0.121389
781.516003,0.336364,0.079966
781.549484,0.022727,0.073399
781.582964,0.025000,0.038753
781.616444,0.554545,0.312316
781.649924,-0.075000,0.041458
781.683404,0.022727,0.019682
781.716883,0.068182,0.068823
781.750362,0.115909,0.062438
781.783841,0.313636,0.084397
781.817319,0.002273,0.121814
781.850797,-0.027273,0.069976
781.884275,0.050000,0.081597
781.917753,0.186364,0.085129
781.951230,0.072727,0.107901
781.984707,0.125000,0.112924
782.018184,0.434091,0.187424
782.051661,-0.004545,0.047727
782.085137,0.068182,0.051676
782.118613,0.047727,0.051363
782.152089,0.381818,0.073925
782.185564,0.018182,0.105822
782.219040,0.095455,0.073399
782.252515,0.306818,0.072469
782.285989,0.234091,0.066368
782.319464,-0.093182,0.032201
782.352938,0.275000,0.150974
782.386412,0.434091,0.218238
782.419885,-0.104545,0.120626
782.453359,-0.122727,0.054782
782.486832,0.325000,0.152065
782.520305,0.234091,0.105057
782.553777,-0.047727,0.023918
782.587249,-0.009091,0.266850
782.620721,-0.770455,0.103422
782.654193,-0.079545,0.092786
782.687665,0.397727,0.096444
782.721136,0.243182,0.152709
782.754607,0.293182,0.194723
782.788077,0.313636,0.243521
782.821548,0.579545,0.381796
782.855018,0.020455,0.143466
782.888488,0.290909,0.195851
782.921957,0.163636,0.093376
782.955427,0.136364,0.118094
782.988896,0.268182,0.125906
783.022365,0.109091,0.153573
783.055833,-0.072727,0.021076
783.089301,0.004545,0.067535
783.122769,-0.106818,0.142599
783.156237,0.465909,0.213815
783.189704,0.045455,0.052911
783.223172,0.306818,0.072469
783.256638,0.463636,0.413686
783.290105,0.490909,0.177302
783.323571,0.247727,0.123957
783.357037,0.356818,0.159136
783.390503,0.047727,0.100688
783.423969,0.204545,0.152035
783.457434,0.536364,0.177825
783.490899,0.050000,0.077506
783.524364,0.395455,0.322831
783.557828,0.193182,0.094222
783.591292,0.004545,0.067535
783.624756,0.000000,0.032141
783.658220,0.690909,0.247550
783.691683,-0.013636,0.192432
783.725146,-0.052273,0.073881
783.758609,0.240909,0.190408
783.792072,0.093182,0.032201
783.825534,0.411364,0.328020
783.858996,0.047727,0.055426
783.892458,0.168182,0.108450
783.925919,-0.095455,0.047835
783.959381,-0.145455,0.044652
783.992842,-0.111364,0.119675
784.026302,0.068182,0.051676
784.059763,-0.120455,0.039545
784.093223,0.443182,0.145858
784.126683,0.284091,0.073671
784.160142,0.340909,0.092793
784.193601,0.568182,0.387545
784.227060,0.218182,0.083258
784.260519,0.193182,0.150254
784.293978,0.156818,0.142490
784.327436,0.186364,0.055809
784.360894,0.259091,0.078302
784.394352,0.138636,0.110004
784.427809,-0.243182,0.076963
784.461266,-0.027273,0.039756
784.494723,0.195455,0.108925
784.528180,0.713636,0.408465
784.561636,0.311364,0.026186
784.595092,0.134091,0.128620
784.628548,0.325000,0.163459
784.662003,0.184091,0.120963
784.695458,-0.022727,0.107877
784.728913,0.120455,0.039545
784.762368,0.097727,0.035410
784.795823,0.211364,0.047822
784.829277,0.113636,0.068823
784.862731,0.415909,0.128500
784.896184,-0.047727,0.051363
784.929637,-0.336364,0.045227
784.963091,0.215909,0.040449
784.996543,0.343182,0.125819
785.029996,0.840909,0.373966
785.063448,0.236364,0.073011
785.096900,0.340909,0.174527
785.130352,0.045455,0.105186
785.163803,-0.072727,0.081502
785.197254,-0.118182,0.049061
785.230705,-0.097727,0.104019
785.264156,-0.118182,0.060473
785.297606,-0.068182,0.051676
785.331056,0.193182,0.127976
785.364506,0.134091,0.154725
785.397955,0.193182,0.058685
785.431405,0.047727,0.023918
785.464854,-0.311364,0.085545
785.498302,0.111364,0.096551
785.531751,0.361364,0.221527
785.565199,0.136364,0.279850
785.598647,-0.329545,0.046396
785.632094,0.106818,0.234353
785.665542,0.247727,0.166929
785.698989,0.068182,0.037689
785.732436,-0.075000,0.041458
785.765882,-0.211364,0.035410
785.799328,0.515909,0.202346
785.832774,0.070455,0.083960
785.866220,0.290909,0.123524
785.899665,-0.188636,0.084512
785.933111,-0.120455,0.068286
785.966555,-0.306818,0.060163
786.000000,0.336364,0.047565
786.033444,0.000000,0.077673
786.066888,0.377273,0.086752
786.100332,0.493182,0.196886
786.133776,0.172727,0.132755
786.167219,0.413636,0.205566
786.200662,0.215909,0.085060
786.234104,0.036364,0.151984
786.267547,-0.200000,0.124025
786.300989,0.043182,0.052359
786.334431,0.165909,0.083714
786.367872,0.136364,0.123273
786.401314,0.140909,0.098569
786.434755,0.072727,0.041161
786.468196,0.561364,0.192804
786.501636,0.070455,0.088978
786.535076,-0.100000,0.061237
786.568516,0.118182,0.039886
786.601956,0.411364,0.328020
786.635395,0.068182,0.068823
786.668834,-0.040909,0.078828
786.702273,0.077273,0.085673
786.735712,0.254545,0.078926
786.769150,0.409091,0.252140
786.802588,-0.384091,0.040703
786.836026,-0.140909,0.038098
786.869463,0.236364,0.075583
786.902900,0.531818,0.234201
786.936337,0.097727,0.093562
786.969774,0.650000,0.228372
787.003210,0.327273,0.215034
787.036646,0.304545,0.065121
787.070082,-0.050000,0.081597
787.103518,-0.109091,0.197322
787.136953,-0.245455,0.083691
787.170388,0.136364,0.076803
787.203823,0.311364,0.069411
787.237257,-0.140909,0.080321
787.270691,0.052273,0.102266
787.304125,0.154545,0.169863
787.337559,0.270455,0.186928
787.370992,-0.288636,0.038886
787.404425,-0.052273,0.054391
787.437858,0.311364,0.158061
787.471290,-0.265909,0.074922
787.504723,-0.004545,0.067535
787.538155,0.259091,0.048798
787.571586,0.263636,0.143488
787.605018,0.072727,0.021076
787.638449,0.545455,0.287929
787.671880,-0.004545,0.057541
787.705310,0.347727,0.275523
787.738741,-0.261364,0.053337
787.772171,0.390909,0.110362
787.805600,0.204545,0.177142
787.839030,0.097727,0.035410
787.872459,0.140909,0.112701
787.905888,0.115909,0.074369
787.939317,0.188636,0.115502
787.972745,0.250000,0.171843
788.006173,0.427273,0.078861
788.039601,0.022727,0.081153
788.073028,0.122727,0.082165
788.106456,0.486364,0.255730
788.139883,0.147727,0.134854
788.173309,0.259091,0.121564
788.206736,0.206818,0.080377
788.240162,0.327273,0.100412
788.273588,0.286364,0.036007
788.307013,0.290909,0.110034
788.340439,0.000000,0.070711
788.373864,0.093182,0.055705
788.407288,0.343182,0.161039
788.440713,0.863636,0.378271
788.474137,0.165909,0.037534
788.507561,0.486364,0.167951
788.540985,-0.020455,0.063667
788.574408,-0.004545,0.059396
788.607831,0.220455,0.153754
788.641254,0.215909,0.095583
788.674677,0.395455,0.205062
788.708099,0.043182,0.323740
788.741521,0.627273,0.140505
788.774943,0.120455,0.124622
788.808364,0.222727,0.253926
788.841785,0.025000,0.038753
788.875206,0.197727,0.246847
788.908627,0.231818,0.122031
788.942047,0.120455,0.039545
788.975467,0.252273,0.121133
789.008887,0.002273,0.033767
789.042306,0.534091,0.361862
789.075726,0.440909,0.195996
789.109145,0.197727,0.094167
789.142563,0.118182,0.018464
789.175982,-0.334091,0.055982
789.209400,0.240909,0.148007
789.242817,0.143182,0.082345
789.276235,0.195455,0.090081
789.309652,0.288636,0.136302
789.343069,0.252273,0.190703
789.376486,0.093182,0.055705
789.409902,0.054545,0.079513
789.443319,0.159091,0.118466
789.476735,-0.027273,0.053203
789.510150,0.300000,0.154612
789.543565,0.134091,0.095095
789.576980,0.150000,0.299974
789.610395,0.250000,0.188746
789.643810,0.995455,0.254596
789.677224,-0.140909,0.051975
789.710638,0.045455,0.098228
789.744052,0.281818,0.139472
789.777465,-0.052273,0.054391
789.810878,0.165909,0.037534
789.844291,0.168182,0.041969
789.877703,0.381818,0.036505
789.911116,0.181818,0.096424
789.944528,0.515909,0.165375
789.977939,0.138636,0.067831
790.011351,-0.097727,0.162030
790.044762,0.115909,0.049311
790.078173,0.072727,0.050103
790.111583,0.386364,0.120326
790.144994,0.215909,0.040449
790.178404,0.218182,0.056408
790.211813,-0.631818,0.216816
790.245223,-0.050000,0.081597
790.278632,0.043182,0.052359
790.312041,-0.075000,0.052458
790.345450,0.025000,0.110004
790.378858,0.270455,0.104267
790.412266,0.120455,0.023038
790.445674,-0.052273,0.073881
790.479081,0.050000,0.126520
790.512488,0.263636,0.042882
790.545895,0.359091,0.109209
790.579302,0.090909,0.057586
790.612708,0.495455,0.189347
790.646115,0.402273,0.067295
790.679520,0.888636,0.160782
790.712926,0.804545,0.215454
790.746331,0.609091,0.279813
790.779736,0.122727,0.114022
790.813141,0.013636,0.159107
790.846545,-0.120455,0.055052
790.879949,0.027273,0.081121
790.913353,0.238636,0.024557
790.946757,0.052273,0.086744
790.980160,0.068182,0.080128
791.013563,0.397727,0.132536
791.046966,0.075000,0.072469
791.080368,0.118182,0.039886
791.113771,0.534091,0.146705
791.147173,0.386364,0.221949
791.180574,0.022727,0.040465
791.213976,0.654545,0.280422
791.247377,0.145455,0.122643
791.280777,0.163636,0.050206
791.314178,0.456818,0.253536
791.347578,0.354545,0.230029
791.380978,0.154545,0.195877
791.414378,0.011364,0.172649
791.447777,-0.331818,0.035863
791.481176,0.554545,0.295734
791.514575,0.293182,0.154223
791.547973,0.238636,0.024557
791.581372,0.211364,0.073390
791.614770,0.463636,0.159610
791.648167,0.354545,0.204116
791.681565,0.234091,0.159686
791.714962,0.286364,0.006818
791.748359,0.377273,0.276012
791.781755,-0.072727,0.073785
791.815152,0.204545,0.185377
791.848548,0.097727,0.076289
791.881943,0.256818,0.216145
791.915339,-0.195455,0.061364
791.948734,0.386364,0.096236
791.982129,0.311364,0.262072
792.015523,0.377273,0.179775
792.048918,0.140909,0.040846
792.082312,0.197727,0.199596
792.115705,0.093182,0.198818
792.149099,0.540909,0.260036
792.182492,0.043182,0.085484
792.215885,-0.184091,0.229813
792.249278,0.279545,0.140225
792.282670,0.136364,0.076803
792.316062,0.043182,0.052359
792.349454,0.143182,0.024133
792.382845,0.184091,0.353296
792.416236,0.090909,0.136364
792.449627,0.356818,0.083405
792.483018,0.681818,0.092319
792.516408,0.729545,0.277466
792.549798,0.311364,0.111728
792.583188,1.004545,0.223734
792.616578,0.679545,0.206440
792.649967,0.231818,0.081407
792.683356,0.475000,0.146247
792.716745,0.170455,0.073671
792.750133,0.134091,0.116659
792.783521,0.156818,0.109722
792.816909,0.065909,0.105694
792.850296,0.459091,0.110852
792.883684,-0.004545,0.059396
792.917071,-0.006818,0.075472
792.950457,0.395455,0.131367
792.983844,-0.377273,0.050258
793.017230,0.020455,0.071320
793.050616,0.065909,0.113880
793.084001,-0.097727,0.035410
793.117386,0.277273,0.135661
793.150771,0.513636,0.256436
793.184156,0.672727,0.331476
793.217541,0.193182,0.135809
793.250925,0.215909,0.186817
793.284309,0.288636,0.059819
793.317692,-0.002273,0.134931
793.351075,0.165909,0.037534
793.384458,0.390909,0.200567
793.417841,0.197727,0.094167
793.451223,0.204545,0.113067
793.484606,0.318182,0.199431
793.517988,0.100000,0.114226
793.551369,0.365909,0.183807
793.584750,0.318182,0.140616
793.618131,0.243182,0.130850
793.651512,0.245455,0.228044
793.684893,0.395455,0.204255
793.718273,0.397727,0.321964
793.751653,0.052273,0.054391
793.785032,0.277273,0.267014
793.818411,0.115909,0.094332
793.851790,0.231818,0.168749
793.885169,0.543182,0.242924
793.918548,0.247727,0.219771
793.951926,0.952273,0.273774
793.985304,0.027273,0.069976
794.018681,0.170455,0.073671
794.052059,-0.172727,0.074551
794.085436,0.147727,0.075404
794.118812,0.025000,0.094878
794.152189,-0.015909,0.103571
794.185565,0.493182,0.199751
794.218941,0.193182,0.037119
794.252317,0.002273,0.085666
794.285692,-0.075000,0.091384
794.319067,0.163636,0.035646
794.352442,0.647727,0.306665
794.385816,0.909091,0.237410
794.419190,2.756818,0.456172
794.452564,2.304545,0.255406
794.485938,1.765909,0.225959
794.519311,0.363636,0.225470
794.552684,0.329545,0.064952
794.586057,0.052273,0.279210
794.619429,-0.122727,0.054782
794.652802,0.143182,0.145752
794.686173,0.350000,0.152578
794.719545,0.740909,0.297814
794.752916,-0.250000,0.189429
794.786287,0.504545,0.378073
794.819658,-0.022727,0.243373
794.853029,-0.029545,0.070519
794.886399,0.270455,0.130018
794.919769,0.263636,0.117919
794.953138,0.554545,0.382075
794.986508,-0.359091,0.063188
795.019877,0.347727,0.153013
795.053245,0.334091,0.147758
795.086614,0.147727,0.112924
795.119982,0.438636,0.196991
795.153350,0.200000,0.176162
795.186718,0.381818,0.192767
795.220085,0.070455,0.054010
795.253452,0.213636,0.133047
795.286819,0.188636,0.030724
795.320185,-0.075000,0.041458
795.353551,0.068182,0.092123
795.386917,0.065909,0.068588
795.420283,0.015909,0.117585
795.453648,0.261364,0.139560
795.487013,0.388636,0.120749
795.520378,0.102273,0.188331
795.553742,0.075000,0.072469
795.587107,-0.077273,0.101104
795.620471,0.163636,0.136817
795.653834,0.838636,0.421557
795.687197,0.513636,0.320664
795.720560,0.000000,0.110829
795.753923,0.143182,0.051464
795.787286,0.190909,0.047997
795.820648,0.370455,0.182707
795.854010,0.297727,0.209470
795.887371,0.197727,0.094167
795.920733,0.181818,0.132522
795.954094,0.218182,0.123483
795.987454,0.209091,0.066959
796.020815,0.209091,0.103353
796.054175,0.172727,0.106649
796.087535,0.215909,0.024557
796.120894,0.329545,0.104168
796.154254,0.329545,0.130573
796.187613,0.470455,0.064793
796.220971,0.347727,0.119242
796.254330,1.206818,0.313857
796.287688,2.270455,0.130018
796.321046,5.736364,0.502946
796.354403,5.404545,0.541286
796.387761,1.806061,0.544684
796.421118,0.495455,0.248892
796.454474,0.393182,0.163490
796.487831,0.140909,0.051975
796.521187,0.020455,0.039414
796.554543,0.456818,0.315907
796.587898,0.400000,0.099118
796.621254,0.222727,0.096771
796.654609,0.429545,0.371525
796.687963,0.170455,0.054106
796.721318,0.084091,0.245273
796.754672,-0.227273,0.158733
796.788026,0.050000,0.081597
796.821379,-0.063636,0.164172
796.854732,0.313636,0.084397
796.888085,0.109091,0.182866
796.921438,0.043182,0.106957
796.954790,0.504545,0.290598
796.988142,0.561364,0.192804
797.021494,0.745455,0.179214
797.054846,1.013636,0.373634
797.088197,0.250000,0.188746
797.121548,0.638636,0.267031
797.154899,0.434091,0.300523
797.188249,0.072727,0.088840
797.221599,0.134091,0.116659
797.254949,0.590909,0.059786
797.288298,0.504545,0.161811
797.321648,0.290909,0.225516
797.354996,-0.084091,0.227531
797.388345,0.143182,0.051464
797.421693,0.288636,0.094932
797.455041,0.384091,0.227054
797.488389,0.320455,0.223269
797.521737,0.447727,0.213525
797.555084,0.295455,0.140560
797.588431,-0.211364,0.162030
797.621777,0.252273,0.245420
797.655124,0.045455,0.135261
797.688470,0.172727,0.074551
797.721815,0.295455,0.189019
797.755161,-0.075000,0.041458
797.788506,0.638636,0.213016
797.821851,0.184091,0.086982
797.855196,0.331818,0.079285
797.888540,0.304545,0.316774
797.921884,0.581818,0.403919
797.955228,-0.034091,0.114016
797.988571,0.025000,0.128459
798.021914,0.511364,0.336339
798.055257,-0.545455,0.044998
798.088599,0.590909,0.321075
798.121942,0.743182,0.164906
798.155284,1.638636,0.601362
798.188625,4.388636,0.409613
798.221967,6.511364,0.564391
798.255308,5.702273,0.593485
798.288649,2.736364,0.754826
798.321989,0.229545,0.171809
798.355329,0.550000,0.368175
798.388669,-0.338636,0.078557
798.422009,0.556818,0.251347
798.455348,0.384091,0.118547
798.488687,0.622727,0.438872
798.522026,0.306061,0.165374
798.555365,0.170455,0.054106
798.588703,0.334091,0.051963
798.622041,0.175000,0.154925
798.655378,0.468182,0.170394
798.688716,0.225000,0.179167
798.722053,0.318182,0.199431
798.755389,0.347727,0.181601
798.788726,-0.027273,0.060388
798.822062,0.440909,0.201069
798.855398,0.281818,0.062902
798.888733,0.325000,0.143610
798.922069,0.568182,0.227557
798.955404,0.115909,0.114874
798.988738,0.218182,0.043952
799.022073,0.565909,0.328979
799.055407,0.754545,0.295787
799.088741,0.104545,0.147762
799.122074,0.393182,0.233580
799.155408,0.359091,0.345223
799.188741,0.234091,0.121389
799.222073,-0.047727,0.124788
799.255406,0.072727,0.117304
799.288738,0.163636,0.057765
799.322069,0.118182,0.073082
799.355401,-0.186364,0.064403
799.388732,0.815909,0.213500
799.422063,0.418182,0.126622
799.455394,0.375000,0.218782
799.488724,0.588636,0.129421
799.522054,-0.097727,0.076289
799.555384,0.268182,0.125906
799.588713,0.031061,0.080890
799.622042,0.025000,0.278636
799.655371,0.775000,0.167239
799.688700,-0.281818,0.062902
799.722028,0.184091,0.086982
799.755356,0.168182,0.108450
799.788684,0.797727,0.591664
799.822011,0.002273,0.060334
799.855338,0.168182,0.089217
799.888665,0.175000,0.157373
799.921992,0.145455,0.114135
799.955318,0.940909,0.590082
799.988644,0.513636,0.167150
800.021969,0.381818,0.073925
800.055295,1.870455,0.471594
800.088620,9.306818,0.990139
800.121945,16.636364,0.682764
800.155269,14.368182,0.808411
800.188593,9.327273,1.243944
800.221917,1.813636,0.306633
800.255241,0.050000,0.068973
800.288564,0.609091,0.318458
800.321887,0.256818,0.081842
800.355210,0.215909,0.297204
800.388532,0.293182,0.081968
800.421854,0.000000,0.032141
800.455176,0.063636,0.101334
800.488498,0.515909,0.196597
800.521819,0.118182,0.161252
800.555140,-0.034091,0.109392
800.588461,0.129545,0.223523
800.621781,1.013636,0.457101
800.655101,0.159091,0.142241
800.688421,-0.111364,0.251901
800.721740,0.390909,0.231640
800.755060,0.347727,0.249553
800.788379,0.279545,0.147758
800.821697,0.288636,0.063341
800.855015,0.570455,0.224882
800.888334,-0.109091,0.120433
800.921651,0.413636,0.257561
800.954969,0.050000,0.068973
800.988286,0.438636,0.352476
801.021603,-0.115909,0.128057
801.054919,0.086364,0.098569
801.088235,0.315909,0.190024
801.121551,0.154545,0.274878
801.154867,0.306061,0.221456
801.188183,0.204545,0.118466
801.221498,0.145455,0.114135
801.254812,0.452273,0.257177
801.288127,0.143182,0.071753
801.321441,0.240909,0.131916
801.354755,0.293182,0.127612
801.388069,0.927273,0.323527
801.421382,0.038636,0.307489
801.454695,1.000000,0.205402
801.488008,0.715909,0.358045
801.521320,0.743182,0.400444
801.554632,0.425000,0.125201
801.587944,0.286364,0.124212
801.621256,0.284091,0.073671
801.654567,0.270455,0.248807
801.687878,0.309091,0.162718
801.721189,0.413636,0.187455
801.754499,0.095455,0.002273
801.787809,-0.002273,0.033767
801.821119,0.500000,0.149413
801.854428,0.481818,0.361842
801.887737,0.400000,0.101028
801.921046,0.513636,0.144081
801.954355,2.170455,0.144649
801.987663,5.290909,0.762418
802.020971,18.713636,1.081706
802.054279,32.439394,0.961694
802.087586,26.295455,0.746054
802.120894,5.746970,1.385319
802.154200,0.947727,0.332819
802.187507,0.568182,0.199003
802.220813,0.197727,0.166030
802.254119,0.309091,0.016701
802.287425,0.229545,0.114874
802.320730,0.434091,0.158518
802.354035,0.147727,0.352388
802.387340,0.527273,0.060045
802.420644,0.402273,0.159038
802.453949,0.656818,0.457043
802.487252,0.356818,0.171629
802.520556,0.270455,0.196571
802.553859,0.388636,0.129021
802.587162,0.475000,0.200731
802.620465,0.479545,0.366288
802.653767,0.184091,0.112098
802.687069,0.265909,0.145645
802.720371,0.470455,0.138184
802.753673,0.895455,0.141768
802.786974,0.313636,0.139897
802.820275,0.481818,0.133376
802.853576,0.954545,0.363366
802.886876,0.672727,0.227659
802.920176,0.329545,0.265596
802.953476,0.347727,0.136454
802.986775,0.840909,0.197047
803.020074,0.806818,0.311378
803.053373,0.043182,0.160943
803.086672,0.284091,0.084022
803.119970,0.500000,0.085583
803.153268,0.163636,0.093376
803.186565,0.647727,0.239131
803.219863,-0.245455,0.122896
803.253160,0.350000,0.177607
803.286457,0.602273,0.122743
803.319753,-0.022727,0.117062
803.353049,0.161364,0.086863
803.386345,0.479545,0.370968
803.419641,0.836364,0.262143
803.452936,0.190909,0.096531
803.486231,0.702273,0.177429
803.519525,0.234091,0.149115
803.552820,0.429545,0.166558
803.586114,0.804545,0.244791
803.619408,0.875000,0.374612
803.652701,0.625000,0.156121
803.685994,1.175000,0.349932
803.719287,0.477273,0.317166
803.752580,0.379545,0.114829
803.785872,0.275000,0.160074
803.819164,0.143182,0.124829
803.852456,0.618182,0.145312
803.885747,2.370455,0.625321
803.919038,11.118182,0.845858
803.952329,34.358333,1.846005
803.985620,65.806061,3.181816
804.018910,35.395455,1.844498
804.052200,11.327273,0.373115
804.085489,1.431818,0.317751
804.118779,1.125000,0.173336
804.152068,0.445455,0.138543
804.185357,0.159091,0.133357
804.218645,0.138636,0.100174
804.251933,0.115909,0.037397
804.285221,0.481818,0.249731
804.318508,0.597727,0.101455
804.351796,0.763636,0.097277
804.385083,1.163636,0.228610
804.418369,0.434091,0.176056
804.451656,1.186364,0.255143
804.484942,-0.088636,0.113471
804.518227,0.168182,0.134014
804.551513,0.197727,0.177691
804.584798,0.393182,0.197802
804.618083,1.140909,0.532658
804.651367,0.777273,0.263372
804.684652,0.472727,0.081881
804.717936,0.209091,0.201697
804.751219,0.309091,0.016701
804.784503,0.345455,0.170197
804.817786,0.318182,0.162305
804.851068,1.429545,0.289545
804.884351,1.518182,0.505619
804.917633,0.900000,0.334917
804.950915,0.963636,0.250268
804.984196,0.550000,0.164565
805.017478,0.959091,0.150807
805.050759,0.713636,0.243712
805.084039,0.563636,0.393700
805.117320,0.609091,0.109375
805.150600,0.093182,0.092396
805.183879,0.290909,0.221378
805.217159,0.104545,0.186128
805.250438,0.686364,0.316383
805.283717,0.254545,0.273559
805.316995,0.590909,0.066261
805.350274,1.025000,0.395420
805.383552,0.388636,0.148594
805.416829,0.231818,0.148738
805.450107,0.638636,0.427132
805.483384,0.343182,0.180174
805.516660,1.329545,0.731440
805.549937,0.822727,0.255447
805.583213,0.472727,0.147885
805.616489,0.547727,0.197096
805.649764,1.036364,0.440077
805.683040,1.527273,0.549530
805.716315,0.447727,0.315793
805.749589,0.531818,0.324825
805.782864,1.654545,0.336993
805.816138,7.138636,0.667775
805.849411,33.400000,2.281657
805.882685,87.181818,2.536844
805.915958,138.909091,3.105695
805.949231,93.985606,1.762768
805.982504,27.431818,1.598723
806.015776,5.640909,0.757909
806.049048,1.404545,0.180292
806.082319,0.529545,0.315678
806.115591,0.843182,0.310548
806.148862,0.340909,0.190733
806.182133,-0.061364,0.107150
806.215403,0.590909,0.121330
806.248673,0.445455,0.221215
806.281943,0.609091,0.165707
806.315213,0.334091,0.200500
806.348482,0.786364,0.430566
806.381751,0.413636,0.251062
806.415019,0.261364,0.352608
806.448288,0.479545,0.233049
806.481556,0.688636,0.302851
806.514823,0.638636,0.107583
806.548091,1.552273,0.449648
806.581358,1.490909,0.407408
806.614625,0.731818,0.235784
806.647891,1.090909,0.381317
806.681158,0.700000,0.146657
806.714424,0.804545,0.405406
806.747689,0.602273,0.131911
806.780955,0.104545,0.183529
806.814220,0.327273,0.176426
806.847484,0.297727,0.165687
806.880749,0.579545,0.151111
806.914013,0.722727,0.443846
806.947277,0.709091,0.329851
806.980540,0.236364,0.097277
807.013803,0.606818,0.229610
807.047066,0.140909,0.125701
807.080329,0.559091,0.217173
807.113591,0.622727,0.080578
807.146853,0.277273,0.095427
807.180115,0.500000,0.294334
807.213376,0.361364,0.138109
807.246637,0.729545,0.359930
807.279898,0.968182,0.357974
807.313159,0.956818,0.439259
807.346419,0.509091,0.292167
807.379679,0.363636,0.078467
807.412938,0.268182,0.163305
807.446198,0.759091,0.309717
807.479457,0.684091,0.227168
807.512715,0.981818,0.304715
807.545974,0.447727,0.284652
807.579232,0.695455,0.509725
807.612490,0.381818,0.095994
807.645747,0.738636,0.062272
807.679004,0.620455,0.167886
807.712261,0.699242,0.177089
807.745518,4.926515,0.506684
807.778774,25.709091,1.428922
807.812030,108.886364,6.523512
807.845285,235.770455,8.220995
807.878541,261.831818,7.176469
807.911796,104.820455,1.227569
807.945051,15.349242,0.609750
807.978305,2.938636,0.905341
808.011559,0.679545,0.476031
808.044813,0.600000,0.280624
808.078066,0.740909,0.048798
808.111320,1.097727,0.360403
808.144573,0.636364,0.360268
808.177825,0.870455,0.128821
808.211078,0.188636,0.155258
808.244330,0.268182,0.097991
808.277581,0.688636,0.041458
808.310833,1.318182,0.749283
808.344084,1.477273,0.440329
808.377335,1.118182,0.460495
808.410585,1.375000,0.238699
808.443835,1.002273,0.033767
808.477085,0.659091,0.342700
808.510335,1.159091,0.475239
808.543584,0.493182,0.089094
808.576833,0.820455,0.399255
808.610082,0.629545,0.190730
808.643330,0.029545,0.336845
808.676578,0.359848,0.157515
808.709826,1.188636,0.367471
808.743073,0.436364,0.224621
808.776320,1.970455,0.456828
808.809567,0.740909,0.350774
808.842814,1.229545,0.342291
808.876060,1.831818,0.567122
808.909306,1.068182,0.112333
808.942552,0.556818,0.188331
808.975797,1.665909,0.575600
809.009042,0.259091,0.232341
809.042287,0.695455,0.411276
809.075531,0.731818,0.323167
809.108775,-0.040909,0.190299
809.142019,1.227273,0.381994
809.175262,1.006818,0.421741
809.208506,1.986364,0.218123
809.241748,0.606818,0.122869
809.274991,1.238636,0.242413
809.308233,0.452273,0.183413
809.341475,1.004545,0.381852
809.374717,1.075000,0.491313
809.407958,0.909091,0.185335
809.441199,0.295455,0.147342
809.474440,0.859091,0.245759
809.507680,1.015909,0.340581
809.540921,1.206818,0.212166
809.574160,1.568182,0.312556
809.607400,1.545455,0.614402
809.640639,1.622727,0.382649
809.673878,2.075000,0.567931
809.707117,11.886364,1.276834
809.740355,39.640909,1.207866
809.773593,181.368182,1.240624
809.806831,380.138636,7.318783
809.840068,318.096212,5.377360
809.873305,83.713636,3.602428
809.906542,15.750000,0.549432
809.939778,2.913636,0.703845
809.973015,2.061364,0.312405
810.006250,1.072727,0.325691
810.039486,1.620455,0.358665
810.072721,1.056818,0.380441
810.105956,1.159091,0.590363
810.139191,1.506818,0.381363
810.172425,0.593182,0.377811
810.205659,1.545455,0.375434
810.238893,1.402273,0.253740
810.272126,2.063636,0.255659
810.305359,3.075000,0.759148
810.338592,2.196970,0.420096
810.371825,3.443182,0.423184
810.405057,3.884091,0.196440
810.438289,2.468182,0.731906
810.471520,1.654545,0.507424
810.504751,1.162879,0.167177
810.537982,2.763636,0.342617
810.571213,1.813636,0.053831
810.604443,0.952273,0.393062
810.637673,1.427273,0.412536
810.670903,1.268182,0.372082
810.704133,0.684091,0.110940
810.737362,2.054545,0.826173
810.770591,1.370455,0.456851
810.803819,1.027273,0.889081
810.837047,0.779545,0.183413
810.870275,0.968182,0.298420
810.903503,1.527273,0.319785
810.936730,0.072727,0.061322
810.969957,1.036364,0.282989
811.003184,1.170455,0.560543
811.036410,0.450000,0.362277
811.069636,1.125000,0.607634
811.102862,1.063636,0.300258
811.136087,1.695455,0.157803
811.169312,1.506818,0.470146
811.202537,1.229545,0.440292
811.235762,0.519697,0.196426
811.268986,0.543939,0.108862
811.302210,0.947727,0.314892
811.335433,1.561364,0.413591
811.368656,1.488636,0.453275
811.401879,2.875000,0.380577
811.435102,2.738636,0.859231
811.468324,1.821212,0.564277
811.501546,1.842424,0.100000
811.534768,3.613636,1.005761
811.567990,1.420455,0.261124
811.601211,1.475000,0.394204
811.634432,1.852273,0.312455
811.667652,6.025000,0.346937
811.700872,26.929545,0.741218
811.734092,111.189394,2.425094
811.767312,221.120455,5.548538
811.800531,211.178030,4.715019
811.833750,64.468182,1.706788
811.866969,12.620455,0.478962
811.900187,2.138636,0.259676
811.933405,1.288636,0.323915
811.966623,0.675000,0.187755
811.999840,1.686364,0.428353
812.033057,0.618939,0.348087
812.066274,1.390909,0.509284
812.099490,0.793182,0.205939
812.132707,1.179545,0.510756
812.165923,1.047727,0.226849
812.199138,1.354545,0.314229
812.232353,0.381818,0.064922
812.265568,1.047727,0.287253
812.298783,0.152273,0.221317
812.331997,2.047727,0.618544
812.365211,1.675758,0.168540
812.398425,1.160606,0.234381
812.431638,1.222727,0.287668
812.464851,1.270455,0.248807
812.498064,1.022727,0.471244
812.531277,1.409091,0.275629
812.564489,2.440909,0.566137
812.597701,2.761364,0.638668
812.630912,0.743182,0.363585
812.664123,1.613636,0.536368
