#{
#    "background_file": "Backgrounds\\\\bg_785.995nm_13bin_219st_244en_10.0s_110g_4x_13_seq.txt",
#    "ccd_image_settings": [
#        1,
#        13,
#        1,
#        1600,
#        219,
#        244
#    ],
#    "ccd_temperature": "-87",
#    "cdRatios": {
#        "mean": 0.9562701648736331,
#        "std": 0.009605128957083786
#    },
#    "center_lambda": 786.0,
#    "comments": "",
#    "dark_region": 19.38537758499679,
#    "date": "10/22/20 16:54:19PM",
#    "eff_field": 1.5,
#    "exposure": 10.0,
#    "fel_lambda": "15.0",
#    "fel_pol": "H",
#    "fel_pulses": 43,
#    "fel_pyro_cal": "0.012",
#    "fel_reprate": "1.07",
#    "fel_transmission": "1.0",
#    "fel_transmission_fits": {
#        "A": 1.0,
#        "C": 0.0,
#        "Mu": 0.0
#    },
#    "fieldInt": {
#        "mean": 5184.313714015152,
#        "std": 534.4876244078371
#    },
#    "fieldStrength": {
#        "mean": 32.96433522727273,
#        "std": 1.8873150857248635
#    },
#    "fpTime": {
#        "mean": 0.9570140322522612,
#        "std": 0.0802648598787517
#    },
#    "gain": 110,
#    "grating": 3,
#    "images_in_sequence": [
#        "hsg_820nm_c123_am45_HAna413.txt",
#        "hsg_820nm_c123_am45_HAna414.txt",
#        "hsg_820nm_c123_am45_HAna415.txt",
#        "hsg_820nm_c123_am45_HAna416.txt"
#    ],
#    "nir_lambda": "819.98",
#    "nir_pola": "-45",
#    "nir_polg": "0",
#    "nir_power": "100.0",
#    "pulseEnergies": {
#        "mean": 1.5671742424242425,
#        "std": 0.1714583799774582
#    },
#    "pyroVoltage": {
#        "mean": 0.13672060382043513,
#        "std": 0.015888837015807077
#    },
#    "rotatorAngle": 90.0,
#    "sample_Temp": "55",
#    "sample_name": "L001218.C1",
#    "series": "820_Fan",
#    "slits": "60",
#    "spec_step": "",
#    "window_trans": 0.92,
#    "y_max": 2,
#    "y_min": 1
#}
#
#
#
#
#
#
#
#
#
#
#
#
#
#
#
#
#
#
#
#
#
#
#
#
#
#
Wavelength,Signal,error
nm,arb. u.,arb.u.
Wavelength,820_Fan,error
759.194366,0.165909,0.089672
759.228015,-0.029545,0.092228
759.261663,0.647727,0.271005
759.295311,0.802273,0.558262
759.328959,0.045455,0.022727
759.362607,-0.002273,0.072612
759.396254,-0.050000,0.095427
759.429901,0.020455,0.088044
759.463548,0.040909,0.078828
759.497194,-0.029545,0.151554
759.530841,0.124242,0.018741
759.564487,0.143182,0.055519
759.598133,0.186364,0.147342
759.631779,0.115909,0.129978
759.665424,0.068182,0.037689
759.699069,-0.031061,0.037119
759.732714,0.270455,0.185763
759.766359,0.100000,0.107853
759.800003,0.459091,0.288224
759.833648,0.159091,0.049533
759.867292,-0.027273,0.114722
759.900935,0.120455,0.106279
759.934579,0.068182,0.037689
759.968222,0.045455,0.093707
760.001865,0.000000,0.147290
760.035508,0.256818,0.050654
760.069151,0.322727,0.198691
760.102793,0.202273,0.180975
760.136435,-0.018182,0.070711
760.170077,-0.093182,0.032201
760.203718,-0.115909,0.019117
760.237360,-0.438636,0.044114
760.271001,0.002273,0.046619
760.304642,0.002273,0.056625
760.338283,-0.217424,0.037397
760.371923,-0.165909,0.062521
760.405563,0.309091,0.167505
760.439203,0.093182,0.064313
760.472843,0.347727,0.195992
760.506482,-0.031061,0.098195
760.540122,0.463636,0.186474
760.573761,0.645455,0.163447
760.607399,0.188636,0.087041
760.641038,0.093182,0.064313
760.674676,0.556818,0.304229
760.708314,0.256818,0.068059
760.741952,0.350000,0.291999
760.775589,-0.186364,0.055809
760.809227,0.411364,0.329591
760.842864,0.134091,0.095095
760.876501,0.347727,0.289599
760.910137,0.031061,0.037119
760.943774,0.281818,0.059786
760.977410,-0.022727,0.049533
761.011046,0.113636,0.087286
761.044681,0.270455,0.263879
761.078317,0.379545,0.107967
761.111952,0.147727,0.177050
761.145587,0.222727,0.330000
761.179221,0.029545,0.086446
761.212856,-0.531818,0.062117
761.246490,0.140909,0.025206
761.280124,0.000000,0.000000
761.313758,0.550000,0.249410
761.347391,0.293182,0.215139
761.381024,-0.047727,0.149219
761.414657,-0.250000,0.098412
761.448290,0.347727,0.116703
761.481923,0.320455,0.102921
761.515555,0.525000,0.178677
761.549187,-0.165909,0.100534
761.582819,-0.163636,0.021320
761.616450,-0.341667,0.049624
761.650082,-0.050000,0.070528
761.683713,0.097727,0.069188
761.717344,0.000000,0.055670
761.750974,-0.420455,0.029524
761.784605,-0.470455,0.082471
761.818235,0.113636,0.037689
761.851865,-0.031061,0.037119
761.885494,-0.590152,0.050654
761.919124,0.320455,0.196177
761.952753,0.109091,0.143884
761.986382,0.527273,0.300894
762.020010,0.181818,0.111340
762.053639,-0.022727,0.067228
762.087267,0.236364,0.073011
762.120895,0.509091,0.181705
762.154523,-0.093182,0.032201
762.188150,-0.211364,0.061269
762.221777,-0.124242,0.018741
762.255404,0.136364,0.122390
762.289031,0.275000,0.070445
762.322658,0.124242,0.074273
762.356284,0.204545,0.081153
762.389910,-0.065909,0.088337
762.423536,0.002273,0.085666
762.457161,-0.068182,0.059047
762.490786,0.025000,0.038753
762.524411,0.000000,0.085038
762.558036,0.022727,0.165066
762.591661,0.136364,0.118094
762.625285,-0.134091,0.189480
762.658909,-0.068182,0.067228
762.692533,-0.045455,0.050820
762.726157,0.390909,0.229399
762.759780,-0.093182,0.032201
762.793403,0.047727,0.023918
762.827026,0.095455,0.086334
762.860649,0.140909,0.145933
762.894271,-0.047727,0.040064
762.927893,0.313636,0.221786
762.961515,0.259091,0.090539
762.995137,0.000000,0.064282
763.028758,0.113636,0.037689
763.062379,0.038636,0.235277
763.096000,0.186364,0.111410
763.129621,0.186364,0.055809
763.163241,0.025000,0.067831
763.196862,-0.031061,0.049101
763.230481,0.275000,0.131754
763.264101,0.045455,0.050820
763.297721,0.615909,0.342879
763.331340,0.062121,0.066920
763.364959,0.418182,0.291689
763.398578,0.152273,0.427410
763.432196,0.759091,0.320986
763.465814,0.129545,0.378781
763.499432,0.683333,0.159205
763.533050,0.529545,0.104564
763.566668,0.093182,0.085060
763.600285,0.061364,0.155922
763.633902,0.206818,0.057977
763.667519,0.534091,0.128941
763.701135,-0.120455,0.071392
763.734752,-0.068182,0.037689
763.768368,0.161364,0.036699
763.801984,0.088636,0.161360
763.835599,0.093182,0.001968
763.869215,0.186364,0.160754
763.902830,-0.163636,0.050206
763.936444,0.320455,0.112511
763.970059,0.206818,0.057977
764.003673,0.234091,0.100019
764.037288,0.234091,0.026577
764.070901,-0.279545,0.055982
764.104515,0.131818,0.164565
764.138128,0.134091,0.149910
764.171742,0.304545,0.119118
764.205354,-0.031061,0.049101
764.238967,0.322727,0.144510
764.272580,-0.025000,0.067831
764.306192,0.270455,0.168255
764.339804,0.097727,0.076289
764.373415,0.020455,0.134471
764.407027,0.062121,0.037137
764.440638,0.062121,0.018603
764.474249,-0.070455,0.074715
764.507860,-0.217424,0.206690
764.541470,0.161364,0.148351
764.575080,0.115909,0.049311
764.608690,0.084091,0.129501
764.642300,-0.118182,0.088257
764.675909,0.177273,0.169513
764.709519,0.322727,0.170727
764.743128,0.075000,0.091384
764.776736,0.227273,0.068182
764.810345,0.115909,0.019117
764.843953,-0.155303,0.066988
764.877561,-0.113636,0.074516
764.911169,0.420455,0.166527
764.944776,0.177273,0.272377
764.978384,0.062121,0.037137
765.011991,-0.047727,0.051363
765.045598,0.345455,0.164015
765.079204,0.002273,0.046619
765.112810,-0.031061,0.018568
765.146416,0.045455,0.039365
765.180022,0.188636,0.037119
765.213628,-0.188636,0.058685
765.247233,0.111364,0.130968
765.280838,0.504545,0.212752
765.314443,0.390909,0.208150
765.348048,0.325000,0.158713
765.381652,-0.075000,0.107005
765.415256,-0.020455,0.075404
765.448860,0.252273,0.218475
765.482463,0.038636,0.118460
765.516067,0.227273,0.093707
765.549670,-0.138636,0.038753
765.583273,0.161364,0.086863
765.616875,-0.047727,0.023918
765.650478,-0.206818,0.057977
765.684080,0.115909,0.074369
765.717682,0.650000,0.383728
765.751283,-0.165909,0.042927
765.784885,0.022727,0.049533
765.818486,0.302273,0.049101
765.852087,0.113636,0.108402
765.885687,-0.118182,0.113818
765.919288,0.045455,0.075378
765.952888,0.120455,0.055052
765.986488,0.309091,0.116598
766.020087,0.334091,0.214249
766.053687,0.045455,0.022727
766.087286,0.068182,0.059047
766.120885,0.124242,0.066959
766.154484,0.297727,0.125119
766.188082,0.318182,0.152459
766.221680,0.277273,0.270474
766.255278,-0.163636,0.021320
766.288876,0.163636,0.113363
766.322473,0.025000,0.038753
766.356070,0.188636,0.049101
766.389667,0.579545,0.288992
766.423264,-0.310606,0.074516
766.456860,0.097727,0.076289
766.490457,0.138636,0.050347
766.524053,-0.022727,0.037689
766.557648,0.209091,0.092821
766.591244,0.093182,0.064313
766.624839,-0.086364,0.118596
766.658434,-0.000000,0.085038
766.692029,0.202273,0.109957
766.725623,0.220455,0.179484
766.759217,0.134091,0.114784
766.792811,-0.120455,0.084634
766.826405,-0.279545,0.032679
766.859999,0.211364,0.069188
766.893592,-0.027273,0.123399
766.927185,-0.020455,0.039414
766.960777,-0.368182,0.082666
766.994370,0.124242,0.074273
767.027962,0.020455,0.050858
767.061554,-0.062121,0.049114
767.095146,0.252273,0.218475
767.128737,-0.186364,0.055809
767.162329,-0.165909,0.089672
767.195920,-0.090909,0.045455
767.229510,0.163636,0.074966
767.263101,-0.093182,0.064313
767.296691,0.022727,0.074516
767.330281,-0.093182,0.111358
767.363871,-0.186364,0.032381
767.397460,0.184091,0.078096
767.431050,0.209091,0.188349
767.464639,0.031061,0.018568
767.498227,0.343182,0.096978
767.531816,0.115909,0.103422
767.565404,-0.420455,0.029524
767.598992,0.186364,0.055809
767.632580,0.229545,0.049311
767.666168,0.070455,0.020423
767.699755,-0.118182,0.039886
767.733342,0.306818,0.108253
767.766929,-0.070455,0.049832
767.800515,0.179545,0.117233
767.834101,0.093182,0.032201
767.867687,0.002273,0.056625
767.901273,0.184091,0.189888
767.934859,-0.400000,0.068635
767.968444,0.120455,0.157242
768.002029,0.093182,0.064313
768.035614,0.322727,0.121181
768.069198,0.070455,0.020423
768.102783,-0.677273,0.092123
768.136367,0.002273,0.033767
768.169950,-0.095455,0.086334
768.203534,0.065909,0.068588
768.237117,0.481818,0.178203
768.270700,0.413636,0.203317
768.304283,0.365909,0.186596
768.337866,-0.248485,0.019285
768.371448,0.154545,0.247174
768.405030,-0.143182,0.120192
768.438612,0.188636,0.185569
768.472193,0.272727,0.085038
768.505775,-0.100000,0.121373
768.539356,0.093182,0.055705
768.572936,-0.062121,0.037137
768.606517,-0.236364,0.057135
768.640097,0.136364,0.093707
768.673677,-0.027273,0.069976
768.707257,0.113636,0.074516
768.740836,0.248485,0.049376
768.774416,0.155303,0.080953
768.807995,0.020455,0.081968
768.841574,0.065909,0.088337
768.875152,0.134091,0.070078
768.908730,-0.093182,0.032201
768.942308,-0.093182,0.001968
768.975886,0.234091,0.299248
769.009464,0.277273,0.043301
769.043041,0.425000,0.228256
769.076618,0.302273,0.066910
769.110195,0.095455,0.097569
769.143771,0.236364,0.057135
769.177348,0.418182,0.133917
769.210924,-0.088636,0.097509
769.244499,0.304545,0.119118
769.278075,0.161364,0.017714
769.311650,0.156818,0.123037
769.345225,0.050000,0.077506
769.378800,0.188636,0.058685
769.412375,0.065909,0.051363
769.445949,-0.093182,0.085060
769.479523,-0.002273,0.046619
769.513097,-0.045455,0.039365
769.546670,0.209091,0.080930
769.580243,-0.070455,0.020423
769.613816,0.279545,0.096604
769.647389,-0.372727,0.007873
769.680962,0.093182,0.085060
769.714534,-0.090909,0.085038
769.748106,0.115909,0.037397
769.781678,0.463636,0.214794
769.815249,0.134091,0.207687
769.848820,-0.204545,0.081153
769.882391,0.093182,0.055705
769.915962,0.143182,0.096337
769.949533,0.000000,0.032141
769.983103,0.093182,0.055705
770.016673,0.134091,0.131558
770.050243,0.113636,0.037689
770.083812,-0.372727,0.085401
770.117381,0.120455,0.111033
770.150950,0.047727,0.068588
770.184519,-0.052273,0.179772
770.218088,-0.065909,0.051363
770.251656,0.043182,0.152979
770.285224,-0.136364,0.068182
770.318791,0.418182,0.232575
770.352359,0.138636,0.021651
770.385926,0.277273,0.105700
770.419493,0.217424,0.074369
770.453060,-0.031818,0.272604
770.486626,0.047727,0.023918
770.520192,-0.088636,0.057530
770.553758,0.065909,0.094003
770.587324,0.179545,0.103172
770.620890,0.215909,0.095583
770.654455,0.256818,0.152404
770.688020,0.415909,0.091384
770.721584,0.018182,0.089995
770.755149,0.418182,0.148547
770.788713,0.155303,0.049206
770.822277,0.331818,0.102323
770.855841,-0.490909,0.044998
770.889404,0.120455,0.055052
770.922967,0.040909,0.132580
770.956530,0.090909,0.055670
770.990093,-0.047727,0.099346
771.023655,0.320455,0.223269
771.057217,0.209091,0.066959
771.090779,0.143182,0.055519
771.124341,-0.425000,0.113335
771.157902,0.138636,0.038753
771.191463,0.256818,0.050654
771.225024,0.252273,0.057530
771.258585,-0.020455,0.050858
771.292145,0.070455,0.049832
771.325705,0.352273,0.091440
771.359265,0.193182,0.122785
771.392825,0.484091,0.186679
771.426384,0.227273,0.104149
771.459943,0.300000,0.151235
771.493502,0.118182,0.039886
771.527061,0.097727,0.061269
771.560619,-0.138636,0.075060
771.594177,0.338636,0.233669
771.627735,-0.090909,0.085038
771.661293,0.395455,0.164941
771.694850,-0.075000,0.128901
771.728407,0.065909,0.068588
771.761964,0.327273,0.083567
771.795521,0.297727,0.179398
771.829077,0.070455,0.038081
771.862633,0.204545,0.177142
771.896189,0.020455,0.088044
771.929744,-0.231818,0.067535
771.963300,0.115909,0.049311
771.996855,0.002273,0.046619
772.030409,0.088636,0.073320
772.063964,0.070455,0.020423
772.097518,0.136364,0.075378
772.131072,0.138636,0.226028
772.164626,-0.022727,0.049533
772.198180,0.022727,0.037689
772.231733,-0.090909,0.115887
772.265286,-0.054545,0.181705
772.298839,0.052273,0.107967
772.332391,0.434091,0.170087
772.365943,0.600000,0.202158
772.399495,0.275000,0.070445
772.433047,-0.256818,0.122322
772.466598,-0.070455,0.020423
772.500150,0.477273,0.387532
772.533701,0.031061,0.018568
772.567251,-0.097727,0.076289
772.600802,0.227273,0.171587
772.634352,0.100000,0.107853
772.667902,0.062121,0.049114
772.701452,0.136364,0.145526
772.735001,0.209091,0.049167
772.768550,0.343182,0.072612
772.802099,-0.093182,0.147303
772.835648,0.062121,0.049114
772.869196,0.095455,0.047835
772.902744,0.154545,0.206155
772.936292,0.275000,0.131754
772.969840,0.275000,0.070445
773.003387,0.390909,0.124233
773.036934,0.161364,0.117233
773.070481,0.025000,0.059732
773.104028,0.159091,0.113067
773.137574,0.154545,0.173503
773.171120,-0.140909,0.025206
773.204666,0.072727,0.041161
773.238212,-0.045455,0.081944
773.271757,0.143182,0.154089
773.305302,0.143182,0.096337
773.338847,0.188636,0.087041
773.372391,0.254545,0.097701
773.405936,0.134091,0.277894
773.439480,-0.025000,0.067831
773.473024,0.302273,0.209125
773.506567,0.343182,0.116348
773.540110,0.022727,0.049533
773.573653,-0.031061,0.018568
773.607196,0.277273,0.029016
773.640739,0.186364,0.064403
773.674281,-0.054545,0.150619
773.707823,0.131818,0.107637
773.741365,0.022727,0.081153
773.774906,0.275000,0.095367
773.808447,0.259091,0.078302
773.841988,0.088636,0.112282
773.875529,-0.020455,0.081968
773.909070,0.000000,0.115887
773.942610,-0.113636,0.059047
773.976150,-0.031061,0.066910
774.009689,0.047727,0.082282
774.043229,-0.256818,0.050654
774.076768,-0.052273,0.125654
774.110307,0.086364,0.152848
774.143845,0.093182,0.085060
774.177384,-0.068182,0.037689
774.210922,-0.031061,0.018568
774.244460,0.115909,0.019117
774.277997,0.093182,0.032201
774.311535,0.040909,0.124545
774.345072,-0.068182,0.037689
774.378609,-0.254545,0.035791
774.412145,-0.118182,0.039886
774.445682,-0.263636,0.098857
774.479218,-0.124242,0.018741
774.512754,0.161364,0.036699
774.546289,-0.161364,0.036699
774.579824,-0.325000,0.037809
774.613359,-0.072727,0.041161
774.646894,0.072727,0.061322
774.680429,0.063636,0.169893
774.713963,0.322727,0.121181
774.747497,0.438636,0.212919
774.781031,0.236364,0.047238
774.814564,-0.025000,0.038753
774.848097,-0.004545,0.074793
774.881630,0.186364,0.003936
774.915163,0.022727,0.049533
774.948696,-0.047727,0.068588
774.982228,-0.020455,0.039414
775.015760,0.225000,0.123874
775.049291,0.000000,0.064282
775.082823,-0.088636,0.065899
775.116354,0.095455,0.035428
775.149885,0.002273,0.033767
775.183416,-0.310606,0.037689
775.216946,-0.279545,0.085242
775.250476,0.088636,0.065899
775.284006,0.225000,0.250730
775.317535,-0.231818,0.038233
775.351065,-0.027273,0.062158
775.384594,-0.209091,0.049167
775.418123,0.184091,0.054770
775.451651,0.031061,0.049101
775.485180,-0.493182,0.095258
775.518708,0.338636,0.301261
775.552235,-0.031061,0.018568
775.585763,-0.075000,0.085545
775.619290,0.393182,0.055982
775.652817,0.509091,0.281965
775.686344,0.095455,0.057631
775.719870,0.186364,0.085129
775.753397,-0.020455,0.099085
775.786923,-0.002273,0.046619
775.820448,-0.022727,0.098412
775.853974,0.372727,0.179128
775.887499,0.318182,0.171587
775.921024,0.115909,0.074369
775.954549,-0.217424,0.037397
775.988073,-0.093182,0.032201
776.021597,0.386364,0.257882
776.055121,-0.054545,0.139953
776.088645,0.045455,0.068182
776.122168,0.036364,0.193809
776.155691,0.090909,0.032141
776.189214,-0.213636,0.097144
776.222737,0.179545,0.117233
776.256259,-0.204545,0.067228
776.289781,0.031061,0.018568
776.323303,0.095455,0.047835
776.356824,-0.002273,0.116348
776.390346,0.184091,0.220123
776.423867,0.320455,0.112511
776.457387,-0.068182,0.117546
776.490908,0.163636,0.038569
776.524428,-0.027273,0.062158
776.557948,-0.347727,0.086147
776.591468,0.134091,0.095095
776.624987,0.095455,0.047835
776.658506,0.097727,0.061269
776.692025,-0.093182,0.064313
776.725544,-0.118182,0.039886
776.759062,0.402273,0.113562
776.792581,0.088636,0.112282
776.826099,0.347727,0.065742
776.859616,0.181818,0.096424
776.893134,0.279545,0.032679
776.926651,0.300000,0.133066
776.960167,-0.217424,0.037397
776.993684,0.252273,0.137133
777.027200,0.111364,0.126963
777.060716,0.095455,0.035428
777.094232,0.390909,0.257009
777.127748,0.113636,0.152035
777.161263,0.354545,0.095671
777.194778,0.027273,0.083443
777.228293,0.331818,0.125041
777.261807,0.093182,0.032201
777.295322,0.140909,0.051975
777.328836,-0.217424,0.019117
777.362349,-0.093182,0.064313
777.395863,0.097727,0.076289
777.429376,-0.047727,0.040064
777.462889,-0.093182,0.032201
777.496401,0.045455,0.050820
777.529914,0.000000,0.032141
777.563426,0.031061,0.018568
777.596938,0.281818,0.075103
777.630449,-0.022727,0.037689
777.663961,0.025000,0.038753
777.697472,0.159091,0.121861
777.730983,0.113636,0.239177
777.764493,0.272727,0.291051
777.798004,0.370455,0.105302
777.831514,-0.395455,0.018603
777.865023,0.000000,0.096424
777.898533,0.134091,0.172349
777.932042,0.131818,0.125371
777.965551,-0.027273,0.069976
777.999060,-0.168182,0.179919
778.032568,0.184091,0.078096
778.066076,-0.025000,0.059732
778.099584,0.229545,0.092897
778.133092,0.075000,0.064952
778.166599,0.136364,0.068182
778.200107,0.431818,0.288153
778.233613,0.000000,0.000000
778.267120,-0.138636,0.038753
778.300626,0.236364,0.047238
778.334132,-0.120455,0.071392
778.367638,0.204545,0.177142
778.401144,0.109091,0.157590
778.434649,0.118182,0.039886
778.468154,0.281818,0.038836
778.501659,0.062121,0.037137
778.535163,0.213636,0.133047
778.568668,0.217424,0.049311
778.602172,0.122727,0.093900
778.635675,-0.279545,0.085242
778.669179,0.090909,0.032141
778.702682,0.252273,0.065899
778.736185,0.186364,0.140156
778.769688,0.022727,0.019682
778.803190,-0.118182,0.039886
778.836692,0.275000,0.131754
778.870194,0.140909,0.051975
778.903696,0.715909,0.432528
778.937197,0.463636,0.069383
778.970698,0.062121,0.037137
779.004199,0.043182,0.041333
779.037699,-0.025000,0.087751
779.071200,0.062121,0.018603
779.104700,0.388636,0.282136
779.138199,0.281818,0.075103
779.171699,0.072727,0.041161
779.205198,0.143182,0.071753
779.238697,0.168182,0.074239
779.272196,0.047727,0.023918
779.305694,-0.068182,0.087286
779.339192,-0.022727,0.019682
779.372690,0.206818,0.073671
779.406188,0.100000,0.107853
779.439685,-0.118182,0.060473
779.473182,-0.184091,0.030555
779.506679,0.217424,0.049311
779.540176,-0.136364,0.093707
779.573672,-0.281818,0.108806
779.607168,0.434091,0.176056
779.640664,0.140909,0.040846
779.674160,-0.095455,0.047835
779.707655,0.000000,0.032141
779.741150,0.025000,0.038753
779.774644,0.168182,0.074239
779.808139,0.165909,0.042927
779.841633,0.045455,0.022727
779.875127,0.050000,0.053926
779.908621,0.095455,0.035428
779.942114,-0.248485,0.019285
779.975607,0.062121,0.037137
780.009100,0.000000,0.111340
780.042593,0.186364,0.003936
780.076085,-0.209091,0.018741
780.109577,0.025000,0.059732
780.143069,0.138636,0.021651
780.176560,0.372727,0.179128
780.210052,0.097727,0.174967
780.243543,-0.006818,0.090532
780.277033,0.304545,0.142784
780.310524,-0.072727,0.138767
780.344014,-0.027273,0.053203
780.377504,0.134091,0.095095
780.410994,-0.231818,0.020706
780.444483,-0.025000,0.059732
780.477972,0.211364,0.041082
780.511461,0.143182,0.120192
780.544950,-0.145455,0.088374
780.578438,0.184091,0.124082
780.611926,0.320455,0.117012
780.645414,0.002273,0.033767
780.678902,0.229545,0.103422
780.712389,0.002273,0.033767
780.745876,0.331818,0.085854
780.779363,0.140909,0.051975
780.812849,0.143182,0.096337
780.846335,0.029545,0.107727
780.879821,0.204545,0.081153
780.913307,0.154545,0.133066
780.946792,0.229545,0.133893
780.980277,0.093182,0.032201
781.013762,0.447727,0.213525
781.047247,0.113636,0.059047
781.080731,0.186364,0.055809
781.114215,0.122727,0.093900
781.147699,0.040909,0.096504
781.181183,0.113636,0.103528
781.214666,0.090909,0.045455
781.248149,0.090909,0.032141
781.281632,0.140909,0.076162
781.315114,0.354545,0.077806
781.348596,0.302273,0.066910
781.382078,0.486364,0.163684
781.415560,0.206818,0.154992
781.449041,0.143182,0.096337
781.482522,0.206818,0.073671
781.516003,0.265909,0.189698
781.549484,0.429545,0.157307
781.582964,0.070455,0.038081
781.616444,0.097727,0.076289
781.649924,0.050000,0.053926
781.683404,0.025000,0.038753
781.716883,-0.047727,0.082282
781.750362,0.354545,0.095671
781.783841,0.090909,0.101639
781.817319,0.202273,0.159751
781.850797,-0.093182,0.032201
781.884275,0.070455,0.020423
781.917753,0.354545,0.077806
781.951230,0.022727,0.049533
781.984707,0.022727,0.067228
782.018184,0.065909,0.094003
782.051661,0.331818,0.125041
782.085137,0.429545,0.233889
782.118613,0.229545,0.121771
782.152089,0.322727,0.047835
782.185564,0.188636,0.074230
782.219040,0.161364,0.036699
782.252515,0.297727,0.102418
782.285989,0.254545,0.097701
782.319464,-0.070455,0.049832
782.352938,0.229545,0.037397
782.386412,-0.155303,0.080953
782.419885,-0.022727,0.145081
782.453359,-0.231818,0.049948
782.486832,0.425000,0.087633
782.520305,0.310606,0.188445
782.553777,0.134091,0.149910
782.587249,-0.193182,0.145858
782.620721,-0.611364,0.184788
782.654193,0.070455,0.093175
782.687665,0.554545,0.121373
782.721136,0.124242,0.037206
782.754607,0.238636,0.077698
782.788077,0.031061,0.018568
782.821548,0.211364,0.025587
782.855018,-0.136364,0.068182
782.888488,0.304545,0.119118
782.921957,0.090909,0.055670
782.955427,-0.050000,0.053926
782.988896,0.000000,0.055670
783.022365,0.068182,0.037689
783.055833,-0.031061,0.049101
783.089301,0.031061,0.037119
783.122769,-0.065909,0.104416
783.156237,0.261364,0.109440
783.189704,0.229545,0.199052
783.223172,0.113636,0.049533
783.256638,0.331818,0.345477
783.290105,-0.040909,0.078828
783.323571,0.161364,0.036699
783.357037,0.179545,0.098037
783.390503,-0.022727,0.067228
783.423969,0.047727,0.051363
783.457434,0.252273,0.112282
783.490899,0.018182,0.084060
783.524364,0.022727,0.049533
783.557828,0.236364,0.057135
783.591292,0.138636,0.021651
783.624756,-0.045455,0.039365
783.658220,0.209091,0.103353
783.691683,0.018182,0.127920
783.725146,-0.075000,0.107005
783.758609,0.363636,0.140100
783.792072,0.343182,0.190432
783.825534,0.075000,0.085545
783.858996,0.418182,0.112998
783.892458,0.217424,0.019117
783.925919,0.275000,0.089787
783.959381,0.025000,0.038753
783.992842,-0.213636,0.056909
784.026302,0.528030,0.050347
784.059763,0.020455,0.126555
784.093223,0.213636,0.072834
784.126683,0.368182,0.104718
784.160142,0.186364,0.085129
784.193601,0.025000,0.021651
784.227060,0.209091,0.049167
784.260519,0.156818,0.082908
784.293978,0.165909,0.042927
784.327436,0.113636,0.059047
784.360894,0.320455,0.170844
784.394352,0.068182,0.087286
784.427809,-0.093182,0.032201
784.461266,0.050000,0.095427
784.494723,0.347727,0.057350
784.528180,-0.234091,0.041706
784.561636,0.325000,0.049624
784.595092,0.277273,0.135661
784.628548,0.090909,0.045455
784.662003,0.204545,0.087286
784.695458,0.113636,0.037689
784.728913,0.134091,0.077097
784.762368,0.322727,0.121181
784.795823,0.063636,0.078335
784.829277,0.227273,0.177506
784.862731,0.661364,0.332089
784.896184,-0.072727,0.180793
784.929637,-0.113636,0.087286
784.963091,0.345455,0.111526
784.996543,0.254545,0.035791
785.029996,0.343182,0.242882
785.063448,0.109091,0.096638
785.096900,0.545455,0.231774
785.130352,0.638636,0.191244
785.163803,0.111364,0.130968
785.197254,0.115909,0.049311
785.230705,-0.006818,0.090532
785.264156,0.040909,0.085129
785.297606,0.134091,0.123456
785.331056,0.186364,0.032381
785.364506,0.209091,0.098228
785.397955,0.413636,0.357931
785.431405,-0.093182,0.032201
785.464854,-0.302273,0.018568
785.498302,-0.070455,0.038081
785.531751,-0.002273,0.033767
785.565199,0.211364,0.149496
785.598647,-0.513636,0.071401
785.632094,-0.234091,0.069560
785.665542,0.022727,0.019682
785.698989,-0.020455,0.050858
785.732436,0.231818,0.206843
785.765882,-0.047727,0.023918
785.799328,0.340909,0.171210
785.832774,0.047727,0.023918
785.866220,0.163636,0.081565
785.899665,-0.004545,0.134129
785.933111,-0.093182,0.147303
785.966555,-0.115909,0.121771
786.000000,0.070455,0.074715
786.033444,0.463636,0.299207
786.066888,0.022727,0.019682
786.100332,0.279545,0.111497
786.133776,0.525000,0.246680
786.167219,0.284091,0.102115
786.200662,0.156818,0.142490
786.234104,0.154545,0.116509
786.267547,-0.186364,0.032381
786.300989,0.025000,0.059732
786.334431,0.217424,0.112970
786.367872,0.068182,0.087286
786.401314,0.184091,0.030555
786.434755,0.111364,0.068963
786.468196,0.259091,0.063758
786.501636,-0.070455,0.049832
786.535076,-0.097727,0.099761
786.568516,0.279545,0.140225
786.601956,0.161364,0.036699
786.635395,0.411364,0.136945
786.668834,0.047727,0.051363
786.702273,-0.047727,0.051363
786.735712,0.234091,0.052654
786.769150,0.588636,0.287756
786.802588,-0.445455,0.066339
786.836026,-0.113636,0.037689
786.869463,0.377273,0.074239
786.902900,0.279545,0.096604
786.936337,0.190909,0.128001
786.969774,0.327273,0.146445
787.003210,-0.002273,0.072612
787.036646,0.027273,0.083443
787.070082,0.043182,0.094551
787.103518,-0.072727,0.099793
787.136953,-0.079545,0.171869
787.170388,0.088636,0.065899
787.203823,0.479545,0.311544
787.237257,-0.155303,0.103372
787.270691,-0.204545,0.067228
787.304125,0.318182,0.177506
787.337559,0.209091,0.049167
787.370992,-0.350000,0.039821
787.404425,0.027273,0.105333
787.437858,0.206818,0.057977
787.471290,-0.393182,0.032679
787.504723,0.031061,0.037119
787.538155,0.138636,0.038753
787.571586,0.793182,0.425618
787.605018,0.197727,0.229498
787.638449,0.488636,0.177050
787.671880,-0.047727,0.040064
787.705310,0.470455,0.118460
787.738741,-0.020455,0.109014
787.772171,0.161364,0.058421
787.805600,-0.209091,0.074273
787.839030,0.090909,0.032141
787.872459,0.204545,0.103528
787.905888,0.238636,0.077698
787.939317,-0.025000,0.038753
787.972745,0.072727,0.061322
788.006173,0.325000,0.067295
788.039601,0.611364,0.353778
788.073028,-0.070455,0.020423
788.106456,0.118182,0.023619
788.139883,0.000000,0.000000
788.173309,0.204545,0.152035
788.206736,0.111364,0.104663
788.240162,0.238636,0.127936
788.273588,0.275000,0.105645
788.307013,0.397727,0.090017
788.340439,0.179545,0.188249
788.373864,0.190909,0.100925
788.407288,0.168182,0.092793
788.440713,0.070455,0.081335
788.474137,0.222727,0.185795
788.507561,0.486364,0.150533
788.540985,0.231818,0.049948
788.574408,0.393182,0.072112
788.607831,0.347727,0.057350
788.641254,0.372727,0.116154
788.674677,0.065909,0.060591
788.708099,-0.395455,0.092793
788.741521,0.504545,0.175501
788.774943,0.202273,0.207563
788.808364,0.277273,0.186903
788.841785,0.961364,0.228596
788.875206,0.415909,0.227463
788.908627,0.379545,0.125654
788.942047,0.343182,0.176349
788.975467,0.252273,0.107583
789.008887,0.297727,0.129181
789.042306,-0.211364,0.041082
789.075726,-0.004545,0.067535
789.109145,0.231818,0.067535
789.142563,0.436364,0.217613
789.175982,-0.211364,0.088804
789.209400,0.047727,0.023918
789.242817,0.279545,0.096604
789.276235,0.000000,0.064282
789.309652,0.279545,0.111497
789.343069,-0.206818,0.057977
789.376486,0.031061,0.037119
789.409902,0.047727,0.023918
789.443319,0.259091,0.063758
789.476735,-0.090909,0.032141
789.510150,0.229545,0.067065
789.543565,0.275000,0.131754
789.576980,-0.284091,0.091440
789.610395,0.248485,0.232575
789.643810,0.000000,0.000000
789.677224,-0.045455,0.022727
789.710638,0.163636,0.050206
789.744052,0.434091,0.176056
789.777465,-0.052273,0.086744
789.810878,0.100000,0.155013
789.844291,0.295455,0.130063
789.877703,0.229545,0.067065
789.911116,0.234091,0.041706
789.944528,0.638636,0.279099
789.977939,0.062121,0.018603
790.011351,0.018182,0.105822
790.044762,0.490909,0.120089
790.078173,0.163636,0.021320
790.111583,0.347727,0.086147
790.144994,0.093182,0.115904
790.178404,0.538636,0.137997
790.211813,-0.493182,0.222179
790.245223,-0.234091,0.083095
790.278632,0.231818,0.093237
790.312041,-0.045455,0.075378
790.345450,0.204545,0.152035
790.378858,0.124242,0.018741
790.412266,0.090909,0.071870
790.445674,0.343182,0.206064
790.479081,-0.047727,0.040064
790.512488,0.093182,0.032201
790.545895,0.181818,0.190150
790.579302,0.277273,0.195018
790.612708,0.090909,0.055670
790.646115,0.113636,0.059047
790.679520,0.481818,0.095021
790.712926,0.815909,0.178677
790.746331,0.395455,0.098202
790.779736,0.038636,0.189016
790.813141,-0.090909,0.078730
790.846545,0.020455,0.039414
790.879949,-0.138636,0.050347
790.913353,0.225000,0.172649
790.946757,-0.070455,0.020423
790.980160,0.231818,0.038233
791.013563,0.325000,0.093064
791.046966,0.463636,0.189224
791.080368,0.118182,0.023619
791.113771,0.486364,0.150533
791.147173,-0.020455,0.039414
791.180574,0.184091,0.044347
791.213976,0.159091,0.059047
791.247377,0.702273,0.125119
791.280777,0.234091,0.076627
791.314178,0.093182,0.032201
791.347578,0.043182,0.076424
791.380978,0.413636,0.078828
791.414378,0.113636,0.103528
791.447777,-0.231818,0.074793
791.481176,0.145455,0.099378
791.514575,0.050000,0.053926
791.547973,0.304545,0.119118
791.581372,0.131818,0.137176
791.614770,0.124242,0.018741
791.648167,0.088636,0.107583
791.681565,0.215909,0.095583
791.714962,0.068182,0.037689
791.748359,0.093182,0.032201
791.781755,-0.004545,0.067535
791.815152,0.238636,0.084083
791.848548,0.341667,0.049624
791.881943,0.070455,0.074715
791.915339,0.293182,0.217527
791.948734,0.320455,0.097774
791.982129,0.070455,0.038081
792.015523,0.025000,0.038753
792.048918,0.188636,0.098195
792.082312,0.159091,0.152035
792.115705,0.302273,0.018568
792.149099,0.113636,0.081153
792.182492,0.325000,0.204252
792.215885,-0.209091,0.018741
792.249278,-0.045455,0.093707
792.282670,0.138636,0.067831
792.316062,0.231818,0.020706
792.349454,0.229545,0.074369
792.382845,0.370455,0.194803
792.416236,0.217424,0.081017
792.449627,0.229545,0.049311
792.483018,0.890909,0.150893
792.516408,0.572727,0.155943
792.549798,0.403788,0.093175
792.583188,1.793182,0.107823
792.616578,1.531818,0.279712
792.649967,0.184091,0.030555
792.683356,0.234091,0.041706
792.716745,0.231818,0.038233
792.750133,-0.018182,0.070711
792.783521,-0.090909,0.032141
792.816909,0.248485,0.098333
792.850296,0.254545,0.015746
792.883684,-0.159091,0.059047
792.917071,0.043182,0.118765
792.950457,0.217424,0.019117
792.983844,0.095455,0.133357
793.017230,0.559091,0.211095
793.050616,-0.031061,0.049101
793.084001,-0.070455,0.074715
793.117386,-0.020455,0.039414
793.150771,0.181818,0.111340
793.184156,0.065909,0.051363
793.217541,0.093182,0.032201
793.250925,0.070455,0.020423
793.284309,0.511364,0.177050
793.317692,0.047727,0.051363
793.351075,0.275000,0.237940
793.384458,0.184091,0.030555
793.417841,0.040909,0.078828
793.451223,-0.090909,0.045455
793.484606,0.159091,0.059047
793.517988,0.186364,0.085129
793.551369,-0.031061,0.037119
793.584750,0.234091,0.052654
793.618131,0.165909,0.083714
793.651512,0.268182,0.229568
793.684893,0.068182,0.171210
793.718273,0.093182,0.055705
793.751653,-0.062121,0.018603
793.785032,0.190909,0.195137
793.818411,0.365909,0.295811
793.851790,0.020455,0.152472
793.885169,-0.093182,0.055705
793.918548,-0.004545,0.059396
793.951926,0.134091,0.189480
793.985304,0.000000,0.055670
794.018681,0.211364,0.099761
794.052059,-0.056818,0.195094
794.085436,0.350000,0.051174
794.118812,0.277273,0.105700
794.152189,0.100000,0.129605
794.185565,0.090909,0.032141
794.218941,0.252273,0.112282
794.252317,0.320455,0.129580
794.285692,-0.031818,0.197962
794.319067,0.270455,0.155491
794.352442,0.465909,0.140446
794.385816,1.273485,0.338680
794.419190,2.179545,0.572622
794.452564,2.738636,0.380427
794.485938,2.495455,0.755158
794.519311,0.561364,0.217717
794.552684,0.204545,0.067228
794.586057,-0.217424,0.019117
794.619429,-0.095455,0.057631
794.652802,0.093182,0.085060
794.686173,0.440909,0.251309
794.719545,0.776515,0.152776
794.752916,0.188636,0.164937
794.786287,0.528030,0.081652
794.819658,0.970455,0.321788
794.853029,0.341667,0.177167
794.886399,-0.031061,0.049101
794.919769,0.002273,0.033767
794.953138,0.411364,0.187837
794.986508,-0.236364,0.176514
795.019877,-0.020455,0.050858
795.053245,0.093182,0.055705
795.086614,0.270455,0.211751
795.119982,0.225000,0.200345
795.153350,0.124242,0.074273
795.186718,0.209091,0.018741
795.220085,0.204545,0.126029
795.253452,0.347727,0.167578
795.286819,0.252273,0.164530
795.320185,-0.025000,0.038753
795.353551,0.834091,0.341792
795.386917,0.109091,0.136515
795.420283,-0.186364,0.085129
795.453648,0.095455,0.057631
795.487013,0.372727,0.033091
795.520378,0.161364,0.058421
795.553742,-0.113636,0.074516
795.587107,0.429545,0.233889
795.620471,-0.025000,0.087751
795.653834,0.256818,0.232849
795.687197,0.093182,0.001968
795.720560,0.188636,0.098195
795.753923,-0.062121,0.018603
795.787286,0.047727,0.040064
795.820648,0.002273,0.046619
795.854010,-0.031818,0.200554
795.887371,0.600000,0.248050
795.920733,0.456818,0.341066
795.954094,0.002273,0.079407
795.987454,0.531818,0.248414
796.020815,0.115909,0.019117
796.054175,0.425000,0.093341
796.087535,0.217424,0.019117
796.120894,0.236364,0.057135
796.154254,0.090909,0.045455
796.187613,0.186364,0.111410
796.220971,0.522727,0.241327
796.254330,1.079545,0.450085
796.287688,2.702273,0.187837
796.321046,7.379545,1.335383
796.354403,7.516667,0.892308
796.387761,2.806818,0.490186
796.421118,0.643182,0.150185
796.454474,0.134091,0.119199
796.487831,0.227273,0.104149
796.521187,0.140909,0.104718
796.554543,0.327273,0.131583
796.587898,0.043182,0.041333
796.621254,0.272727,0.096424
796.654609,0.411364,0.253394
796.687963,0.095455,0.035428
796.721318,-0.217424,0.067065
796.754672,-0.496970,0.050206
796.788026,0.217424,0.158615
796.821379,-0.002273,0.046619
796.854732,0.310606,0.037689
796.888085,0.070455,0.049832
796.921438,0.227273,0.149033
796.954790,-0.068182,0.037689
796.988142,0.547727,0.219183
797.021494,0.163636,0.038569
797.054846,0.097727,0.088804
797.088197,0.031061,0.074230
797.121548,0.302273,0.112878
797.154899,0.279545,0.064553
797.188249,0.181818,0.085038
797.221599,0.047727,0.040064
797.254949,0.165909,0.042927
797.288298,0.310606,0.019682
797.321648,0.496970,0.219032
797.354996,-0.138636,0.145361
797.388345,0.070455,0.067449
797.421693,0.002273,0.085666
797.455041,-0.025000,0.087751
797.488389,0.136364,0.050820
797.521737,-0.034091,0.169600
797.555084,0.031061,0.066910
797.588431,0.329545,0.228053
797.621777,0.609091,0.231640
797.655124,-0.097727,0.099761
797.688470,0.345455,0.167134
797.721815,0.093182,0.001968
797.755161,-0.186364,0.085129
797.788506,0.261364,0.118504
797.821851,0.365909,0.100123
797.855196,0.118182,0.039886
797.888540,0.297727,0.157963
797.921884,0.306818,0.133855
797.955228,0.031061,0.018568
797.988571,0.365909,0.114559
798.021914,0.279545,0.096604
798.055257,-0.217424,0.049311
798.088599,0.095455,0.080128
798.121942,0.993939,0.377245
798.155284,0.890909,0.420104
798.188625,4.300000,0.947343
798.221967,9.313636,0.847831
798.255308,8.790152,1.303882
798.288649,2.795455,0.399347
798.321989,0.217424,0.165000
798.355329,0.504545,0.202808
798.388669,-0.327273,0.083567
798.422009,0.184091,0.030555
798.455348,0.434848,0.081407
798.488687,0.136364,0.068182
798.522026,0.622727,0.269555
798.555365,0.000000,0.032141
798.588703,-0.022727,0.081153
798.622041,0.354545,0.090110
798.655378,0.022727,0.103528
798.688716,0.345455,0.170197
798.722053,0.729545,0.401834
798.755389,0.206818,0.125531
798.788726,0.318182,0.232885
798.822062,0.088636,0.057530
798.855398,0.488636,0.218805
798.888733,0.070455,0.074715
798.922069,0.020455,0.075404
798.955404,0.020455,0.088044
798.988738,0.120455,0.071392
799.022073,0.284091,0.079342
799.055407,0.186364,0.003936
799.088741,0.068182,0.180034
799.122074,0.443182,0.122785
799.155408,0.869697,0.159610
799.188741,0.343182,0.215858
799.222073,0.072727,0.082822
799.255406,0.422727,0.216888
799.288738,0.093182,0.085060
799.322069,0.556818,0.130929
799.355401,-0.047727,0.104416
799.388732,0.047727,0.099346
799.422063,0.490909,0.181705
799.455394,0.340909,0.196496
799.488724,0.136364,0.039365
799.522054,0.447727,0.176437
799.555384,0.434848,0.188554
799.588713,0.240909,0.194806
799.622042,-0.434848,0.020706
799.655371,0.120455,0.106279
799.688700,-0.004545,0.141622
799.722028,0.759091,0.281552
799.755356,0.077273,0.135356
799.788684,0.600000,0.304172
799.822011,0.275000,0.194988
799.855338,0.484091,0.100277
799.888665,0.090909,0.055670
799.921992,0.052273,0.121474
799.955318,0.209091,0.103353
799.988644,0.093182,0.064313
800.021969,1.165909,0.371344
800.055295,1.584091,0.308428
800.088620,5.093939,0.300722
800.121945,16.475000,1.397646
800.155269,19.234091,0.975307
800.188593,8.976515,0.411776
800.221917,2.640152,0.334552
800.255241,0.452273,0.525785
800.288564,0.322727,0.065987
800.321887,0.184091,0.146952
800.355210,0.290909,0.391596
800.388532,0.341667,0.121899
800.421854,0.175000,0.223916
800.455176,0.277273,0.105700
800.488498,0.186364,0.032381
800.521819,0.525000,0.205562
800.555140,0.509091,0.366410
800.588461,0.272727,0.136364
800.621781,0.181818,0.090909
800.655101,0.252273,0.182396
800.688421,0.043182,0.094551
800.721740,0.095455,0.035428
800.755060,0.640909,0.528149
800.788379,0.043182,0.104909
800.821697,0.206818,0.097774
800.855015,0.304545,0.119118
800.888334,-0.018182,0.084060
800.921651,0.320455,0.198792
800.954969,-0.002273,0.056625
800.988286,0.070455,0.049832
801.021603,0.004545,0.059396
801.054919,0.440909,0.111965
801.088235,0.509091,0.063960
801.121551,0.475000,0.422756
801.154867,0.495455,0.131799
801.188183,0.140909,0.104718
801.221498,0.479545,0.240424
801.254812,0.640909,0.369295
801.288127,0.802273,0.149668
801.321441,0.652273,0.140776
801.354755,0.186364,0.032381
801.388069,0.838636,0.450326
801.421382,-0.095455,0.179574
801.454695,0.740909,0.416517
801.488008,0.345455,0.231863
801.521320,0.217424,0.049311
801.554632,0.347727,0.034970
801.587944,1.359091,0.355324
801.621256,0.531818,0.163051
801.654567,0.161364,0.066679
801.687878,0.159091,0.193849
801.721189,0.250000,0.141476
801.754499,0.004545,0.074793
801.787809,0.002273,0.046619
801.821119,0.529545,0.214610
801.854428,0.341667,0.121899
801.887737,0.272727,0.096424
801.921046,0.895455,0.218312
801.954355,1.779545,0.456342
801.987663,5.202273,0.506980
802.020971,18.574242,0.413280
802.054279,34.284091,3.011101
802.087586,28.393182,1.776114
802.120894,7.245455,1.208587
802.154200,1.273485,0.330967
802.187507,1.620455,0.673114
802.220813,0.352273,0.065031
802.254119,0.256818,0.039151
802.287425,0.217424,0.112970
802.320730,0.325000,0.161935
802.354035,-0.195455,0.186128
802.387340,0.609091,0.238236
802.420644,0.045455,0.104149
802.453949,0.025000,0.038753
802.487252,0.611364,0.184788
802.520556,0.656818,0.259537
802.553859,0.310606,0.019682
802.587162,0.309091,0.091814
802.620465,0.865909,0.418643
802.653767,0.193182,0.214634
802.687069,0.502273,0.198272
802.720371,0.611364,0.299886
802.753673,0.493182,0.095258
802.786974,0.711364,0.354988
802.820275,0.236364,0.097277
802.853576,0.325000,0.152065
802.886876,0.447727,0.111959
802.920176,0.093182,0.096444
802.953476,-0.165909,0.077298
802.986775,0.375000,0.088571
803.020074,0.259091,0.063758
803.053373,-0.043182,0.118765
803.086672,0.743182,0.214370
803.119970,0.341667,0.049624
803.153268,0.045455,0.050820
803.186565,0.443182,0.152776
803.219863,-0.211364,0.041082
803.253160,0.447727,0.157897
803.286457,0.031061,0.080890
803.319753,0.062121,0.066920
803.353049,0.322727,0.363942
803.386345,0.697727,0.112878
803.419641,0.179545,0.141216
803.452936,0.050000,0.053926
803.486231,0.556818,0.297361
803.519525,0.124242,0.049167
803.552820,0.072727,0.088840
803.586114,0.309091,0.097277
803.619408,0.750000,0.191166
803.652701,0.683333,0.068446
803.685994,0.613636,0.180034
803.719287,0.310606,0.177142
803.752580,0.372727,0.179128
803.785872,0.095455,0.035428
803.819164,0.318182,0.113636
803.852456,0.663636,0.164957
803.885747,2.081061,0.355308
803.919038,8.979545,0.492090
803.952329,28.171970,0.718055
803.985620,56.040909,4.300180
804.018910,38.950000,0.910916
804.052200,9.442424,0.661703
804.085489,1.840909,0.300439
804.118779,1.104545,0.315795
804.152068,0.315909,0.255019
804.185357,0.911364,0.412991
804.218645,0.775000,0.153653
804.251933,0.379545,0.107967
804.285221,0.528030,0.237179
804.318508,0.377273,0.103328
804.351796,0.347727,0.065742
804.385083,0.327273,0.114812
804.418369,0.068182,0.196496
804.451656,0.393182,0.184732
804.484942,0.565909,0.349149
804.518227,0.243182,0.206140
804.551513,0.093182,0.001968
804.584798,0.343182,0.079407
804.618083,0.065909,0.142127
804.651367,0.393182,0.116037
804.684652,0.281818,0.152324
804.717936,-0.279545,0.064553
804.751219,0.859091,0.305958
804.784503,0.025000,0.038753
804.817786,0.156818,0.076424
804.851068,0.188636,0.074230
804.884351,0.279545,0.064553
804.917633,0.561364,0.128097
804.950915,0.613636,0.532396
804.984196,0.403788,0.145184
805.017478,0.618182,0.322119
805.050759,0.340909,0.196496
805.084039,0.031061,0.049101
805.117320,0.045455,0.122390
805.150600,0.062121,0.049114
805.183879,0.990909,0.540374
805.217159,0.254545,0.179646
805.250438,0.695455,0.233406
805.283717,0.456818,0.130968
805.316995,0.625000,0.104613
805.350274,0.390909,0.128324
805.383552,1.180303,0.281919
805.416829,0.248485,0.161859
805.450107,0.481818,0.224391
805.483384,0.206818,0.179686
805.516660,0.155303,0.092842
805.549937,0.295455,0.093015
805.583213,0.204545,0.067228
805.616489,0.320455,0.129580
805.649764,1.065909,0.241709
805.683040,0.186364,0.064403
805.716315,0.115909,0.133893
805.749589,0.229545,0.049311
805.782864,1.411364,0.305179
805.816138,4.659091,0.275319
805.849411,22.059091,0.831914
805.882685,68.461364,3.725323
805.915958,116.422727,2.164404
805.949231,95.728788,3.356278
805.982504,23.575000,1.352620
806.015776,3.385606,0.624304
806.049048,1.550000,0.591796
806.082319,0.200000,0.133454
806.115591,0.645455,0.135832
806.148862,-0.047727,0.068588
806.182133,0.136364,0.068182
806.215403,0.536364,0.159610
806.248673,0.763636,0.361013
806.281943,0.341667,0.019911
806.315213,0.045455,0.039365
806.348482,0.109091,0.208398
806.381751,-0.217424,0.049311
806.415019,-0.056818,0.210381
806.448288,0.595455,0.239695
806.481556,0.406818,0.176202
806.514823,0.465909,0.116304
806.548091,0.634091,0.159751
806.581358,0.490909,0.090682
806.614625,0.170455,0.136718
806.647891,0.259091,0.101309
806.681158,0.621212,0.081944
806.714424,0.204545,0.103528
806.747689,0.468182,0.042336
806.780955,0.550000,0.320148
806.814220,0.536364,0.299207
806.847484,0.281818,0.059786
806.880749,0.795455,0.188445
806.914013,0.409091,0.288377
806.947277,0.159091,0.081153
806.980540,0.420455,0.105841
807.013803,0.155303,0.080953
807.047066,0.422727,0.099248
807.080329,0.279545,0.116037
807.113591,0.279545,0.128700
807.146853,0.740909,0.264917
807.180115,0.325000,0.074577
807.213376,0.320455,0.144649
807.246637,0.593182,0.215499
807.279898,0.254545,0.066183
807.313159,0.186364,0.064403
807.346419,0.377273,0.074239
807.379679,-0.077273,0.119118
807.412938,0.134091,0.178243
807.446198,0.463636,0.131190
807.479457,0.275000,0.189616
807.512715,0.413636,0.078828
807.545974,0.622727,0.144939
807.579232,0.918182,0.441939
807.612490,0.356818,0.203618
807.645747,0.572727,0.180507
807.679004,0.893182,0.206765
807.712261,0.915909,0.289688
807.745518,2.988636,0.195755
807.778774,17.131818,1.213992
807.812030,87.093939,2.132090
807.845285,190.153030,4.625269
807.878541,220.064394,5.236735
807.911796,76.346970,1.941749
807.945051,15.778788,0.844195
807.978305,2.609091,0.314820
808.011559,0.761364,0.270529
808.044813,0.397727,0.308026
808.078066,0.403788,0.020423
808.111320,0.731818,0.373191
808.144573,0.403788,0.081335
808.177825,1.063636,0.522174
808.211078,0.568182,0.317166
808.244330,0.002273,0.072612
808.277581,0.988636,0.425909
808.310833,0.552273,0.176437
808.344084,0.984091,0.261875
808.377335,2.118182,0.804391
808.410585,0.859091,0.069048
808.443835,1.318182,0.376889
808.477085,0.434848,0.288224
808.510335,-0.093182,0.001968
808.543584,1.335606,0.293003
808.576833,1.000000,0.394958
808.610082,0.929545,0.134086
808.643330,-0.124242,0.129924
808.676578,1.272727,0.238366
808.709826,0.390909,0.111062
808.743073,0.386364,0.188445
808.776320,0.656818,0.444321
808.809567,0.050000,0.095427
808.842814,0.602273,0.090017
808.876060,0.404545,0.200245
808.909306,0.325000,0.193872
808.942552,0.372727,0.116154
808.975797,0.745455,0.116952
809.009042,0.318182,0.134456
809.042287,0.984091,0.238547
809.075531,0.372727,0.167196
809.108775,0.186364,0.128625
809.142019,0.765909,0.076627
809.175262,0.559091,0.147762
809.208506,0.590152,0.228370
809.241748,0.372727,0.085401
809.274991,1.043182,0.175026
809.308233,0.341667,0.113107
809.341475,0.618182,0.138020
809.374717,0.306818,0.074299
809.407958,0.579545,0.115188
809.441199,0.279545,0.032679
809.474440,0.559091,0.167428
809.507680,0.427273,0.180507
809.540921,0.652273,0.334305
809.574160,0.897727,0.356599
809.607400,0.840909,0.346731
809.640639,0.668182,0.091673
809.673878,1.234091,0.041706
809.707117,4.410606,0.415026
809.740355,27.156061,1.464437
809.773593,130.686364,4.968705
809.806831,271.159091,6.959770
809.840068,239.850000,5.674225
809.873305,65.165152,1.985051
809.906542,13.681818,0.829779
809.939778,2.650000,0.775753
809.973015,1.429545,0.215499
810.006250,1.127273,0.468821
810.039486,0.652273,0.251409
810.072721,1.134091,0.119199
810.105956,1.052273,0.164781
810.139191,1.152273,0.219959
810.172425,0.868182,0.259559
810.205659,1.020455,0.435515
810.238893,1.793182,0.524457
810.272126,1.465909,0.505235
810.305359,2.081061,0.301860
810.338592,1.304545,0.446213
810.371825,3.502273,0.662650
810.405057,2.671212,0.171331
810.438289,2.820455,0.080698
810.471520,2.015909,0.237026
810.504751,1.811364,0.513590
810.537982,1.211364,0.256393
810.571213,0.852273,0.177050
810.604443,0.720455,0.401873
810.637673,1.118182,0.308857
810.670903,0.456818,0.237505
810.704133,1.204545,0.295236
810.737362,0.436364,0.084060
810.770591,0.668182,0.278602
810.803819,0.804545,0.478392
810.837047,0.736364,0.420866
810.870275,0.827273,0.257250
810.903503,0.890909,0.313010
810.936730,0.062121,0.080898
810.969957,1.134091,0.407514
811.003184,0.261364,0.118504
811.036410,0.186364,0.055809
811.069636,1.120455,0.305990
811.102862,1.425000,0.409638
811.136087,1.077273,0.509552
811.169312,0.459091,0.081407
811.202537,0.231818,0.134129
811.235762,1.222727,0.353867
811.268986,1.370455,0.530801
811.302210,0.341667,0.372594
811.335433,0.850000,0.196390
811.368656,1.781818,0.593665
811.401879,1.815909,0.299627
811.435102,2.050000,0.215166
811.468324,0.807576,0.094339
811.501546,2.546970,0.410521
811.534768,0.838636,0.499280
811.567990,0.815909,0.590912
811.601211,1.090909,0.154144
811.634432,2.850000,0.546150
811.667652,3.975758,0.439713
811.700872,19.537121,0.753904
811.734092,76.311364,1.853989
811.767312,161.227273,3.549895
811.800531,148.656061,4.300372
811.833750,48.906818,1.737649
811.866969,7.268182,0.725719
811.900187,2.547727,0.963381
811.933405,0.450000,0.431716
811.966623,0.129545,0.150357
811.999840,0.959091,0.267014
812.033057,0.186364,0.195547
812.066274,0.963636,0.472771
812.099490,0.668182,0.280449
812.132707,1.659091,0.431669
812.165923,0.965909,0.308026
812.199138,1.706818,0.295985
812.232353,1.770455,0.454947
812.265568,1.215909,0.452659
812.298783,0.734091,0.579910
812.331997,1.568182,0.498318
812.365211,2.340909,0.715368
812.398425,0.745455,0.086483
812.431638,0.656818,0.532230
812.464851,1.793182,0.533344
812.498064,0.465909,0.200963
812.531277,0.320455,0.176788
812.564489,0.929545,0.412240
812.597701,0.761364,0.549082
812.630912,1.036364,0.467276
812.664123,1.227273,0.524700
