#{
#    "background_file": "Backgrounds\\\\bg_785.995nm_13bin_219st_244en_10.0s_110g_4x_13_seq.txt",
#    "ccd_image_settings": [
#        1,
#        13,
#        1,
#        1600,
#        219,
#        244
#    ],
#    "ccd_temperature": "-87",
#    "cdRatios": {
#        "mean": 0.9547980367970746,
#        "std": 0.008428807049315463
#    },
#    "center_lambda": 786.0,
#    "comments": "",
#    "dark_region": 5.827583055596432,
#    "date": "10/22/20 17:00:06PM",
#    "eff_field": 1.5,
#    "exposure": 10.0,
#    "fel_lambda": "15.0",
#    "fel_pol": "H",
#    "fel_pulses": 43,
#    "fel_pyro_cal": "0.012",
#    "fel_reprate": "1.07",
#    "fel_transmission": "1.0",
#    "fel_transmission_fits": {
#        "A": 1.0,
#        "C": 0.0,
#        "Mu": 0.0
#    },
#    "fieldInt": {
#        "mean": 5393.4617878787885,
#        "std": 230.27184428812842
#    },
#    "fieldStrength": {
#        "mean": 33.68477462121212,
#        "std": 0.7252525526161662
#    },
#    "fpTime": {
#        "mean": 0.9875815616060644,
#        "std": 0.07135982955354535
#    },
#    "gain": 110,
#    "grating": 3,
#    "images_in_sequence": [
#        "hsg_820nm_c123_am45_HAna441.txt",
#        "hsg_820nm_c123_am45_HAna442.txt",
#        "hsg_820nm_c123_am45_HAna443.txt",
#        "hsg_820nm_c123_am45_HAna444.txt"
#    ],
#    "nir_lambda": "819.98",
#    "nir_pola": "-45",
#    "nir_polg": "0",
#    "nir_power": "100.0",
#    "pulseEnergies": {
#        "mean": 1.6320738636363636,
#        "std": 0.08009149434902027
#    },
#    "pyroVoltage": {
#        "mean": 0.1425203806018792,
#        "std": 0.00800611134771241
#    },
#    "rotatorAngle": 247.4999963378817,
#    "sample_Temp": "55",
#    "sample_name": "L001218.C1",
#    "series": "820_Fan",
#    "slits": "60",
#    "spec_step": "",
#    "window_trans": 0.92,
#    "y_max": 2,
#    "y_min": 1
#}
#
#
#
#
#
#
#
#
#
#
#
#
#
#
#
#
#
#
#
#
#
#
#
#
#
#
Wavelength,Signal,error
nm,arb. u.,arb.u.
Wavelength,820_Fan,error
759.194366,0.025000,0.117892
759.228015,0.084091,0.218546
759.261663,0.297727,0.085966
759.295311,-0.072727,0.041161
759.328959,-0.047727,0.040064
759.362607,-0.075000,0.072469
759.396254,-0.029545,0.102821
759.429901,-0.120455,0.071392
759.463548,0.254545,0.066183
759.497194,-0.329545,0.058773
759.530841,0.306818,0.108253
759.564487,0.062121,0.037137
759.598133,0.134091,0.119199
759.631779,-0.238636,0.090017
759.665424,0.031061,0.080890
759.699069,0.347727,0.365314
759.732714,-0.186364,0.032381
759.766359,0.025000,0.021651
759.800003,0.320455,0.176788
759.833648,0.436364,0.175575
759.867292,0.018182,0.160191
759.900935,0.070455,0.049832
759.934579,0.302273,0.037119
759.968222,-0.031061,0.129899
760.001865,0.000000,0.032141
760.035508,0.186364,0.003936
760.069151,0.702273,0.187837
760.102793,0.093182,0.055705
760.136435,-0.029545,0.121261
760.170077,0.052273,0.148281
760.203718,-0.031061,0.018568
760.237360,-0.536364,0.052421
760.271001,0.297727,0.179398
760.304642,0.155303,0.037258
760.338283,0.111364,0.104663
760.371923,0.022727,0.067228
760.405563,0.284091,0.116304
760.439203,0.088636,0.211263
760.472843,0.300000,0.047019
760.506482,0.134091,0.077097
760.540122,0.368182,0.241840
760.573761,0.229545,0.049311
760.607399,0.211364,0.088804
760.641038,0.124242,0.098228
760.674676,0.093182,0.032201
760.708314,0.136364,0.050820
760.741952,0.204545,0.103528
760.775589,-0.145455,0.075788
760.809227,0.115909,0.049311
760.842864,-0.020455,0.060163
760.876501,0.000000,0.111340
760.910137,0.279545,0.032679
760.943774,0.370455,0.159848
760.977410,0.065909,0.113880
761.011046,0.225000,0.153653
761.044681,0.111364,0.082596
761.078317,0.072727,0.041161
761.111952,-0.065909,0.082282
761.145587,-0.277273,0.029016
761.179221,0.093182,0.096444
761.212856,-0.584091,0.046396
761.246490,0.497727,0.289545
761.280124,0.124242,0.018741
761.313758,0.093182,0.085060
761.347391,0.761364,0.552832
761.381024,-0.111364,0.104663
761.414657,-0.325000,0.049624
761.448290,-0.062121,0.049114
761.481923,0.259091,0.044710
761.515555,0.050000,0.053926
761.549187,-0.306818,0.058773
761.582819,0.002273,0.096978
761.616450,-0.465909,0.033614
761.650082,-0.372727,0.033091
761.683713,0.088636,0.086266
761.717344,0.068182,0.098412
761.750974,0.220455,0.491859
761.784605,-0.038636,0.271367
761.818235,0.050000,0.053926
761.851865,-0.124242,0.018741
761.885494,-0.425000,0.130296
761.919124,0.070455,0.038081
761.952753,0.045455,0.068182
761.986382,0.093182,0.032201
762.020010,0.000000,0.000000
762.053639,-0.155303,0.037258
762.087267,0.234091,0.026577
762.120895,0.290909,0.288269
762.154523,-0.000000,0.085038
762.188150,-0.095455,0.035428
762.221777,0.022727,0.037689
762.255404,-0.047727,0.082282
762.289031,0.118182,0.060473
762.322658,0.134091,0.070078
762.356284,0.225000,0.189752
762.389910,-0.155303,0.129939
762.423536,0.361364,0.399514
762.457161,-0.075000,0.154424
762.490786,0.318182,0.159091
762.524411,0.204545,0.130063
762.558036,-0.072727,0.061322
762.591661,0.018182,0.160191
762.625285,-0.518182,0.083443
762.658909,-0.118182,0.068484
762.692533,0.375000,0.180660
762.726157,0.031061,0.066910
762.759780,-0.093182,0.085060
762.793403,0.211364,0.099761
762.827026,0.379545,0.173930
762.860649,0.341667,0.019911
762.894271,-0.113636,0.037689
762.927893,0.318182,0.134456
762.961515,-0.186364,0.003936
762.995137,0.109091,0.111526
763.028758,0.027273,0.069976
763.062379,-0.002273,0.161039
763.096000,0.136364,0.068182
763.129621,0.397727,0.115188
763.163241,-0.045455,0.022727
763.196862,0.390909,0.175869
763.230481,0.270455,0.126147
763.264101,0.090909,0.045455
763.297721,0.047727,0.068588
763.331340,0.247727,0.131558
763.364959,0.025000,0.067831
763.398578,-0.434848,0.122031
763.432196,0.179545,0.137509
763.465814,0.434091,0.455685
763.499432,0.368182,0.109540
763.533050,0.062121,0.049114
763.566668,0.088636,0.133313
763.600285,-0.184091,0.030555
763.633902,0.352273,0.091440
763.667519,0.504545,0.202808
763.701135,0.155303,0.092842
763.734752,-0.045455,0.039365
763.768368,0.231818,0.093237
763.801984,0.204545,0.180034
763.835599,-0.047727,0.094003
763.869215,0.097727,0.088804
763.902830,0.479545,0.297985
763.936444,0.124242,0.037206
763.970059,-0.165909,0.042927
764.003673,0.093182,0.055705
764.037288,0.043182,0.052359
764.070901,-0.375000,0.040576
764.104515,-0.002273,0.271025
764.138128,0.259091,0.055064
764.171742,0.031061,0.049101
764.205354,0.093182,0.128580
764.238967,0.138636,0.021651
764.272580,-0.138636,0.021651
764.306192,0.062121,0.037137
764.339804,0.093182,0.032201
764.373415,0.134091,0.119199
764.407027,0.252273,0.276870
764.440638,0.000000,0.032141
764.474249,0.031061,0.037119
764.507860,-0.054545,0.257049
764.541470,0.065909,0.068588
764.575080,0.213636,0.085854
764.608690,0.022727,0.158685
764.642300,-0.215909,0.222318
764.675909,-0.231818,0.038233
764.709519,0.186364,0.055809
764.743128,-0.090909,0.055670
764.776736,0.025000,0.067831
764.810345,0.070455,0.020423
764.843953,-0.254545,0.035791
764.877561,-0.002273,0.046619
764.911169,-0.093182,0.055705
764.944776,-0.031061,0.092786
764.978384,0.093182,0.064313
765.011991,0.395455,0.129904
765.045598,0.459091,0.137927
765.079204,0.090909,0.085038
765.112810,0.020455,0.039414
765.146416,-0.217424,0.037397
765.180022,0.252273,0.092059
765.213628,-0.231818,0.020706
765.247233,-0.217424,0.019117
765.280838,0.186364,0.032381
765.314443,0.217424,0.049311
765.348048,-0.115909,0.049311
765.381652,-0.115909,0.092897
765.415256,-0.093182,0.055705
765.448860,0.250000,0.247665
765.482463,-0.190909,0.090110
765.516067,0.277273,0.077506
765.549670,0.088636,0.086266
765.583273,0.186364,0.003936
765.616875,-0.113636,0.037689
765.650478,-0.252273,0.107583
765.684080,-0.047727,0.051363
765.717682,-0.022727,0.148599
765.751283,-0.077273,0.114700
765.784885,-0.097727,0.099761
765.818486,0.124242,0.066959
765.852087,-0.045455,0.050820
765.885687,-0.025000,0.038753
765.919288,-0.004545,0.134129
765.952888,0.047727,0.113880
765.986488,0.204545,0.087286
766.020087,0.268182,0.421546
766.053687,0.120455,0.090532
766.087286,0.155303,0.018844
766.120885,0.184091,0.106133
766.154484,0.211364,0.025587
766.188082,0.318182,0.199431
766.221680,-0.062121,0.066920
766.255278,-0.231818,0.081407
766.288876,0.047727,0.082282
766.322473,0.115909,0.129978
766.356070,0.095455,0.047835
766.389667,-0.022727,0.037689
766.423264,-0.236364,0.147850
766.456860,0.438636,0.163522
766.490457,0.184091,0.124082
766.524053,0.063636,0.143524
766.557648,0.329545,0.074299
766.591244,0.415909,0.173336
766.624839,-0.279545,0.064553
766.658434,0.062121,0.018603
766.692029,0.163636,0.067726
766.725623,0.259091,0.139860
766.759217,-0.072727,0.152933
766.792811,0.095455,0.211290
766.826405,0.050000,0.053926
766.859999,0.120455,0.071392
766.893592,0.062121,0.018603
766.927185,0.111364,0.152810
766.960777,-0.302273,0.049101
766.994370,0.031061,0.018568
767.027962,0.138636,0.067831
767.061554,-0.155303,0.049206
767.095146,0.156818,0.123037
767.128737,-0.186364,0.003936
767.162329,-0.186364,0.032381
767.195920,0.002273,0.072612
767.229510,0.310606,0.019682
767.263101,0.062121,0.066920
767.296691,-0.047727,0.051363
767.330281,-0.347727,0.065742
767.363871,-0.434848,0.020706
767.397460,0.047727,0.082282
767.431050,0.031061,0.018568
767.464639,0.093182,0.055705
767.498227,0.188636,0.087041
767.531816,0.138636,0.081652
767.565404,-0.256818,0.050654
767.598992,0.047727,0.051363
767.632580,0.325000,0.228143
767.666168,-0.006818,0.084634
767.699755,0.070455,0.093175
767.733342,-0.043182,0.052359
767.766929,0.165909,0.089672
767.800515,-0.031061,0.049101
767.834101,-0.093182,0.055705
767.867687,0.081818,0.247007
767.901273,-0.027273,0.053203
767.934859,-0.304545,0.069939
767.968444,-0.118182,0.039886
768.002029,0.068182,0.113067
768.035614,-0.124242,0.049167
768.069198,0.000000,0.032141
768.102783,-0.770455,0.049311
768.136367,0.165909,0.053626
768.169950,-0.118182,0.118269
768.203534,-0.068182,0.037689
768.237117,0.115909,0.037397
768.270700,0.095455,0.073399
768.304283,0.031061,0.080890
768.337866,-0.304545,0.089391
768.371448,-0.186364,0.055809
768.405030,-0.093182,0.085060
768.438612,0.088636,0.107583
768.472193,0.188636,0.037119
768.505775,0.043182,0.076424
768.539356,0.290909,0.221378
768.572936,0.088636,0.133313
768.606517,-0.234091,0.041706
768.640097,0.284091,0.198376
768.673677,-0.006818,0.119977
768.707257,0.093182,0.128580
768.740836,0.097727,0.088804
768.774416,0.090909,0.071870
768.807995,0.245455,0.137645
768.841574,0.186364,0.085129
768.875152,0.368182,0.138674
768.908730,0.159091,0.113067
768.942308,-0.068182,0.059047
768.975886,-0.113636,0.081153
769.009464,0.093182,0.001968
769.043041,0.186364,0.140156
769.076618,0.047727,0.051363
769.110195,0.284091,0.147618
769.143771,0.161364,0.036699
769.177348,0.118182,0.039886
769.210924,-0.022727,0.049533
769.244499,0.093182,0.001968
769.278075,0.343182,0.247098
769.311650,0.063636,0.101334
769.345225,0.161364,0.058421
769.378800,0.124242,0.049167
769.412375,0.211364,0.061269
769.445949,-0.072727,0.061322
769.479523,0.113636,0.049533
769.513097,0.140909,0.076162
769.546670,0.206818,0.035989
769.580243,-0.143182,0.071753
769.613816,0.072727,0.061322
769.647389,-0.496970,0.038569
769.680962,0.310606,0.158685
769.714534,0.281818,0.239360
769.748106,0.161364,0.036699
769.781678,0.213636,0.072834
769.815249,-0.140909,0.040846
769.848820,-0.559091,0.034242
769.882391,0.229545,0.174138
769.915962,0.325000,0.093064
769.949533,0.113636,0.165066
769.983103,0.093182,0.032201
770.016673,-0.097727,0.076289
770.050243,0.115909,0.019117
770.083812,-0.052273,0.121474
770.117381,-0.054545,0.111155
770.150950,0.093182,0.032201
770.184519,-0.341667,0.067295
770.218088,0.072727,0.061322
770.251656,0.018182,0.089995
770.285224,-0.155303,0.018844
770.318791,-0.155303,0.018844
770.352359,0.118182,0.088257
770.385926,0.031061,0.037119
770.419493,0.279545,0.085242
770.453060,-0.217424,0.098300
770.486626,0.093182,0.001968
770.520192,-0.070455,0.081335
770.553758,-0.093182,0.032201
770.587324,0.065909,0.051363
770.620890,-0.072727,0.041161
770.654455,-0.027273,0.069976
770.688020,0.124242,0.018741
770.721584,0.043182,0.094551
770.755149,0.084091,0.158224
770.788713,0.070455,0.038081
770.822277,0.211364,0.088804
770.855841,-0.403788,0.038081
770.889404,0.279545,0.064553
770.922967,-0.206818,0.073671
770.956530,0.155303,0.049206
770.990093,0.043182,0.052359
771.023655,0.297727,0.079732
771.057217,0.527273,0.353027
771.090779,-0.031061,0.037119
771.124341,-0.543182,0.109487
771.157902,0.156818,0.123037
771.191463,-0.093182,0.032201
771.225024,0.124242,0.103353
771.258585,0.043182,0.118765
771.292145,-0.002273,0.072612
771.325705,0.206818,0.057977
771.359265,0.045455,0.099066
771.392825,0.020455,0.118111
771.426384,-0.004545,0.067535
771.459943,0.120455,0.084634
771.493502,-0.093182,0.032201
771.527061,0.745455,0.362555
771.560619,-0.209091,0.018741
771.594177,-0.062121,0.092793
771.627735,0.155303,0.074299
771.661293,0.209091,0.018741
771.694850,-0.155303,0.080953
771.728407,0.022727,0.081153
771.761964,0.136364,0.093707
771.795521,-0.027273,0.069976
771.829077,0.022727,0.067228
771.862633,0.115909,0.214056
771.896189,-0.095455,0.035428
771.929744,-0.279545,0.055982
771.963300,0.000000,0.032141
771.996855,-0.118182,0.039886
772.030409,0.477273,0.180034
772.063964,0.250000,0.152035
772.097518,-0.165909,0.119329
772.131072,-0.327273,0.070124
772.164626,0.093182,0.085060
772.198180,-0.045455,0.050820
772.231733,0.161364,0.086863
772.265286,-0.047727,0.149219
772.298839,-0.341667,0.019911
772.332391,0.256818,0.113562
772.365943,0.213636,0.133047
772.399495,0.345455,0.170197
772.433047,-0.027273,0.095021
772.466598,-0.118182,0.060473
772.500150,0.118182,0.060473
772.533701,0.138636,0.038753
772.567251,0.052273,0.148281
772.600802,-0.072727,0.082822
772.634352,0.156818,0.244048
772.667902,0.045455,0.022727
772.701452,0.093182,0.055705
772.735001,-0.161364,0.058421
772.768550,0.115909,0.081017
772.802099,-0.211364,0.069188
772.835648,0.031061,0.018568
772.869196,-0.047727,0.023918
772.902744,-0.072727,0.076331
772.936292,0.062121,0.018603
772.969840,0.310606,0.049533
773.003387,0.347727,0.065742
773.036934,0.070455,0.038081
773.070481,0.065909,0.060591
773.104028,0.022727,0.049533
773.137574,0.062121,0.080898
773.171120,-0.231818,0.081407
773.204666,0.093182,0.032201
773.238212,0.072727,0.041161
773.271757,0.070455,0.177225
773.305302,0.065909,0.082282
773.338847,0.302273,0.103322
773.372391,0.022727,0.049533
773.405936,-0.168182,0.074239
773.439480,-0.072727,0.076331
773.473024,0.118182,0.039886
773.506567,0.211364,0.041082
773.540110,0.047727,0.068588
773.573653,-0.031061,0.049101
773.607196,0.231818,0.038233
773.640739,-0.027273,0.069976
773.674281,-0.256818,0.022355
773.707823,0.159091,0.067228
773.741365,0.093182,0.055705
773.774906,0.047727,0.023918
773.808447,0.000000,0.096424
773.841988,0.209091,0.049167
773.875529,0.038636,0.126882
773.909070,-0.300000,0.056954
773.942610,-0.327273,0.028020
773.976150,0.018182,0.070711
774.009689,0.177273,0.150120
774.043229,-0.279545,0.085242
774.076768,0.070455,0.038081
774.110307,0.113636,0.180034
774.143845,0.047727,0.068588
774.177384,0.134091,0.114784
774.210922,0.156818,0.118765
774.244460,0.115909,0.081017
774.277997,0.043182,0.041333
774.311535,0.281818,0.050412
774.345072,0.197727,0.173037
774.378609,-0.211364,0.088804
774.412145,0.015909,0.093064
774.445682,0.002273,0.056625
774.479218,0.070455,0.130177
774.512754,0.259091,0.163684
774.546289,-0.256818,0.022355
774.579824,-0.161364,0.017714
774.613359,-0.022727,0.093015
774.646894,0.318182,0.122390
774.680429,-0.070455,0.038081
774.713963,0.209091,0.049167
774.747497,0.002273,0.033767
774.781031,0.000000,0.032141
774.814564,-0.072727,0.052223
774.848097,-0.006818,0.128298
774.881630,0.188636,0.049101
774.915163,-0.068182,0.037689
774.948696,0.020455,0.039414
774.982228,0.115909,0.037397
775.015760,-0.062121,0.049114
775.049291,0.090909,0.136364
775.082823,-0.095455,0.080128
775.116354,0.065909,0.060591
775.149885,-0.093182,0.032201
775.183416,-0.155303,0.018844
775.216946,-0.304545,0.042336
775.250476,0.181818,0.071870
775.284006,-0.002273,0.033767
775.317535,-0.341667,0.019911
775.351065,-0.322727,0.047835
775.384594,-0.161364,0.036699
775.418123,0.310606,0.081153
775.451651,0.090909,0.136364
775.485180,-0.496970,0.050206
775.518708,-0.031061,0.080890
775.552235,0.118182,0.060473
775.585763,-0.062121,0.018603
775.619290,0.209091,0.018741
775.652817,0.138636,0.021651
775.686344,0.027273,0.069976
775.719870,-0.090909,0.055670
775.753397,-0.065909,0.068588
775.786923,-0.155303,0.018844
775.820448,-0.143182,0.124415
775.853974,0.248485,0.019285
775.887499,0.113636,0.117546
775.921024,-0.161364,0.017714
775.954549,-0.375000,0.051764
775.988073,0.000000,0.064282
776.021597,0.022727,0.037689
776.055121,-0.136364,0.068182
776.088645,0.065909,0.051363
776.122168,-0.440909,0.085854
776.155691,0.062121,0.037137
776.189214,-0.165909,0.053626
776.222737,0.252273,0.193392
776.256259,-0.140909,0.122874
776.289781,-0.062121,0.018603
776.323303,0.155303,0.018844
776.356824,0.140909,0.025206
776.390346,0.070455,0.067449
776.423867,0.111364,0.130968
776.457387,-0.259091,0.044710
776.490908,0.252273,0.137133
776.524428,0.229545,0.145006
776.557948,-0.309091,0.116598
776.591468,0.093182,0.160718
776.624987,0.204545,0.209227
776.658506,0.136364,0.050820
776.692025,-0.252273,0.065899
776.725544,-0.168182,0.092793
776.759062,0.000000,0.032141
776.792581,-0.248485,0.067113
776.826099,0.177273,0.115059
776.859616,0.206818,0.057977
776.893134,0.372727,0.096745
776.926651,-0.002273,0.033767
776.960167,-0.277273,0.029016
776.993684,0.188636,0.117365
777.027200,0.124242,0.049167
777.060716,0.163636,0.067726
777.094232,0.068182,0.059047
777.127748,-0.022727,0.019682
777.161263,0.427273,0.356086
777.194778,-0.002273,0.107102
777.228293,0.347727,0.034970
777.261807,0.045455,0.022727
777.295322,0.304545,0.042336
777.328836,-0.275000,0.095367
777.362349,-0.124242,0.066959
777.395863,0.234091,0.189289
777.429376,-0.070455,0.049832
777.462889,0.031061,0.049101
777.496401,-0.022727,0.093015
777.529914,0.138636,0.021651
777.563426,0.270455,0.263879
777.596938,0.161364,0.086863
777.630449,0.254545,0.057854
777.663961,0.138636,0.038753
777.697472,0.254545,0.140982
777.730983,-0.093182,0.055705
777.764493,-0.161364,0.066679
777.798004,0.661364,0.264563
777.831514,-0.279545,0.111497
777.865023,0.315909,0.227168
777.898533,-0.070455,0.067449
777.932042,0.229545,0.074369
777.965551,0.188636,0.049101
777.999060,-0.347727,0.065742
778.032568,0.236364,0.173563
778.066076,0.302273,0.080890
778.099584,-0.090909,0.071870
778.133092,0.161364,0.086863
778.166599,0.159091,0.087286
778.200107,-0.111364,0.104663
778.233613,-0.062121,0.049114
778.267120,-0.165909,0.062521
778.300626,0.259091,0.055064
778.334132,-0.095455,0.057631
778.367638,-0.115909,0.049311
778.401144,0.131818,0.116841
778.434649,-0.022727,0.049533
778.468154,-0.047727,0.051363
778.501659,0.002273,0.046619
778.535163,0.115909,0.049311
778.568668,0.256818,0.093617
778.602172,0.434091,0.321418
778.635675,-0.068182,0.255871
778.669179,-0.050000,0.053926
778.702682,0.138636,0.050347
778.736185,0.300000,0.185028
778.769688,0.211364,0.131086
778.803190,-0.304545,0.042336
778.836692,0.043182,0.069337
778.870194,0.454545,0.341666
778.903696,0.165909,0.062521
778.937197,0.136364,0.068182
778.970698,0.247727,0.153316
779.004199,-0.004545,0.126193
779.037699,0.115909,0.081017
779.071200,0.159091,0.087286
779.104700,-0.072727,0.041161
779.138199,-0.025000,0.038753
779.171699,0.020455,0.075404
779.205198,0.318182,0.159091
779.238697,-0.070455,0.020423
779.272196,0.062121,0.018603
779.305694,-0.025000,0.021651
779.339192,0.231818,0.148738
779.372690,0.086364,0.088695
779.406188,-0.025000,0.059732
779.439685,-0.093182,0.055705
779.473182,-0.279545,0.032679
779.506679,0.159091,0.059047
779.540176,0.115909,0.037397
779.573672,-0.254545,0.116952
779.607168,0.234091,0.069560
779.640664,0.093182,0.032201
779.674160,-0.020455,0.060163
779.707655,-0.113636,0.059047
779.741150,0.086364,0.099664
779.774644,0.050000,0.070528
779.808139,0.186364,0.055809
779.841633,0.302273,0.144934
779.875127,0.186364,0.111410
779.908621,-0.093182,0.055705
779.942114,-0.304545,0.042336
779.975607,0.022727,0.019682
780.009100,-0.415909,0.046396
780.042593,-0.093182,0.032201
780.076085,-0.054545,0.181705
780.109577,0.272727,0.085038
780.143069,0.184091,0.135999
780.176560,0.068182,0.019682
780.210052,0.047727,0.051363
780.243543,-0.068182,0.037689
780.277033,-0.020455,0.075404
780.310524,-0.211364,0.041082
780.344014,0.095455,0.073399
780.377504,-0.025000,0.038753
780.410994,-0.184091,0.054770
780.444483,0.072727,0.052223
780.477972,0.272727,0.160706
780.511461,0.118182,0.039886
780.544950,-0.186364,0.032381
780.578438,0.113636,0.133975
780.611926,0.115909,0.019117
780.645414,0.113636,0.087286
780.678902,0.000000,0.032141
780.712389,0.250000,0.081153
780.745876,0.413636,0.111410
780.779363,0.113636,0.133975
780.812849,0.065909,0.094003
780.846335,0.002273,0.033767
780.879821,0.113636,0.133975
780.913307,0.002273,0.072612
780.946792,0.045455,0.022727
780.980277,0.031061,0.037119
781.013762,0.084091,0.151554
781.047247,0.248485,0.049376
781.080731,0.252273,0.057530
781.114215,0.065909,0.068588
781.147699,0.070455,0.038081
781.181183,0.027273,0.069976
781.214666,-0.027273,0.114722
781.248149,0.277273,0.105700
781.281632,0.227273,0.093707
781.315114,0.090909,0.071870
781.348596,0.062121,0.049114
781.382078,0.155303,0.018844
781.415560,0.062121,0.018603
781.449041,-0.238636,0.135770
781.482522,0.231818,0.081407
781.516003,0.340909,0.204230
781.549484,-0.002273,0.056625
781.582964,0.111364,0.082596
781.616444,0.300000,0.072869
781.649924,0.000000,0.032141
781.683404,0.268182,0.292847
781.716883,0.043182,0.069337
781.750362,0.140909,0.025206
781.783841,0.062121,0.049114
781.817319,0.118182,0.118269
781.850797,-0.072727,0.088840
781.884275,-0.022727,0.067228
781.917753,0.140909,0.040846
781.951230,-0.072727,0.052223
781.984707,0.234091,0.041706
782.018184,0.040909,0.085129
782.051661,-0.031061,0.037119
782.085137,0.045455,0.039365
782.118613,0.068182,0.037689
782.152089,0.211364,0.025587
782.185564,0.068182,0.019682
782.219040,0.070455,0.038081
782.252515,0.484091,0.110098
782.285989,0.963636,0.324547
782.319464,-0.020455,0.050858
782.352938,0.093182,0.032201
782.386412,0.252273,0.223153
782.419885,-0.259091,0.063758
782.453359,-0.284091,0.102115
782.486832,0.179545,0.103172
782.520305,0.062121,0.066920
782.553777,-0.118182,0.039886
782.587249,-0.493182,0.077298
782.620721,-0.472727,0.174985
782.654193,0.031061,0.074230
782.687665,0.465909,0.251224
782.721136,0.022727,0.037689
782.754607,0.027273,0.069976
782.788077,0.134091,0.105400
782.821548,0.184091,0.054770
782.855018,0.088636,0.086266
782.888488,0.335606,0.120563
782.921957,0.825000,0.552262
782.955427,-0.090909,0.055670
782.988896,0.093182,0.032201
783.022365,-0.022727,0.037689
783.055833,0.068182,0.113067
783.089301,-0.031061,0.049101
783.122769,-0.354545,0.070857
783.156237,0.155303,0.018844
783.189704,0.136364,0.093707
783.223172,0.025000,0.087751
783.256638,-0.186364,0.032381
783.290105,0.093182,0.085060
783.323571,0.022727,0.019682
783.357037,0.093182,0.001968
783.390503,-0.072727,0.099793
783.423969,-0.136364,0.039365
783.457434,0.047727,0.051363
783.490899,0.061364,0.122532
783.524364,0.022727,0.049533
783.557828,0.325000,0.093064
783.591292,0.234091,0.083095
783.624756,-0.161364,0.058421
783.658220,0.027273,0.095021
783.691683,-0.118182,0.068484
783.725146,0.022727,0.019682
783.758609,0.140909,0.082666
783.792072,0.093182,0.085060
783.825534,0.043182,0.076424
783.858996,0.315909,0.309882
783.892458,0.138636,0.021651
783.925919,0.090909,0.045455
783.959381,0.022727,0.049533
783.992842,-0.302273,0.037119
784.026302,0.179545,0.188249
784.059763,-0.115909,0.049311
784.093223,0.031061,0.049101
784.126683,0.329545,0.058773
784.160142,0.140909,0.051975
784.193601,-0.140909,0.025206
784.227060,0.072727,0.041161
784.260519,0.138636,0.038753
784.293978,0.062121,0.066920
784.327436,0.093182,0.001968
784.360894,0.310606,0.130063
784.394352,0.204545,0.180034
784.427809,-0.120455,0.096068
784.461266,0.163636,0.021320
784.494723,0.093182,0.032201
784.528180,0.134091,0.172349
784.561636,0.206818,0.102921
784.595092,0.165909,0.062521
784.628548,0.322727,0.092123
784.662003,0.068182,0.019682
784.695458,0.159091,0.059047
784.728913,0.252273,0.167640
784.762368,0.118182,0.023619
784.795823,0.120455,0.071392
784.829277,0.486364,0.084642
784.862731,0.231818,0.038233
784.896184,0.090909,0.055670
784.929637,-0.347727,0.065742
784.963091,0.163636,0.074966
784.996543,0.363636,0.115887
785.029996,0.461364,0.113335
785.063448,0.340909,0.171210
785.096900,0.043182,0.052359
785.130352,0.138636,0.050347
785.163803,0.165909,0.062521
785.197254,0.000000,0.064282
785.230705,-0.068182,0.161907
785.264156,-0.045455,0.050820
785.297606,-0.163636,0.067726
785.331056,0.093182,0.085060
785.364506,0.206818,0.035989
785.397955,0.027273,0.095021
785.431405,0.090909,0.136364
785.464854,-0.259091,0.090539
785.498302,-0.070455,0.038081
785.531751,-0.093182,0.001968
785.565199,0.209091,0.080930
785.598647,-0.434848,0.093237
785.632094,-0.229545,0.092897
785.665542,0.088636,0.057530
785.698989,-0.062121,0.018603
785.732436,0.072727,0.104841
785.765882,-0.125000,0.112924
785.799328,0.065909,0.094003
785.832774,0.118182,0.039886
785.866220,0.438636,0.330733
785.899665,-0.050000,0.095427
785.933111,-0.045455,0.050820
785.966555,-0.322727,0.065987
786.000000,0.400000,0.113909
786.033444,0.247727,0.163111
786.066888,0.140909,0.104718
786.100332,-0.068182,0.059047
786.133776,0.025000,0.067831
786.167219,-0.097727,0.061269
786.200662,0.093182,0.032201
786.234104,0.072727,0.052223
786.267547,-0.093182,0.055705
786.300989,0.350000,0.152578
786.334431,0.250000,0.121861
786.367872,0.018182,0.127920
786.401314,0.065909,0.068588
786.434755,0.320455,0.144649
786.468196,0.186364,0.055809
786.501636,0.138636,0.050347
786.535076,-0.284091,0.072541
786.568516,0.020455,0.081968
786.601956,0.206818,0.073671
786.635395,0.322727,0.282432
786.668834,-0.052273,0.103071
786.702273,-0.138636,0.050347
786.735712,0.111364,0.130968
786.769150,0.031061,0.037119
786.802588,-0.248485,0.037483
786.836026,-0.140909,0.051975
786.869463,-0.022727,0.049533
786.902900,0.786364,0.213528
786.936337,0.062121,0.066920
786.969774,0.097727,0.088804
787.003210,-0.070455,0.067449
787.036646,0.161364,0.036699
787.070082,-0.120455,0.063748
787.103518,-0.043182,0.104909
787.136953,-0.120455,0.090532
787.170388,0.093182,0.115904
787.203823,0.254545,0.097701
787.237257,-0.161364,0.058421
787.270691,-0.095455,0.057631
787.304125,0.254545,0.086483
787.337559,0.140909,0.025206
787.370992,-0.256818,0.050654
787.404425,-0.124242,0.049167
787.437858,0.124242,0.018741
787.471290,-0.231818,0.020706
787.504723,-0.093182,0.032201
787.538155,-0.031061,0.049101
787.571586,0.256818,0.022355
787.605018,-0.070455,0.049832
787.638449,-0.022727,0.067228
787.671880,-0.065909,0.082282
787.705310,0.070455,0.020423
787.738741,-0.248485,0.019285
787.772171,0.652273,0.167578
787.805600,-0.097727,0.099761
787.839030,-0.062121,0.018603
787.872459,0.209091,0.037206
787.905888,0.118182,0.039886
787.939317,0.581818,0.298689
787.972745,-0.072727,0.041161
788.006173,0.184091,0.030555
788.039601,0.022727,0.019682
788.073028,-0.115909,0.081017
788.106456,0.138636,0.050347
788.139883,0.431818,0.375344
788.173309,0.134091,0.100380
788.206736,-0.002273,0.116348
788.240162,0.331818,0.151218
788.273588,0.025000,0.067831
788.307013,0.095455,0.047835
788.340439,-0.045455,0.050820
788.373864,0.138636,0.148872
788.407288,0.045455,0.022727
788.440713,0.118182,0.060473
788.474137,0.256818,0.183187
788.507561,0.552273,0.157897
788.540985,-0.075000,0.072469
788.574408,-0.050000,0.053926
788.607831,0.188636,0.037119
788.641254,0.138636,0.098824
788.674677,0.002273,0.033767
788.708099,-0.397727,0.063014
788.741521,0.529545,0.130889
788.774943,0.590909,0.512751
788.808364,-0.124242,0.049167
788.841785,0.088636,0.086266
788.875206,0.354545,0.184245
788.908627,0.684091,0.287217
788.942047,0.050000,0.070528
788.975467,0.000000,0.085038
789.008887,-0.093182,0.096444
789.042306,-0.165909,0.042927
789.075726,-0.062121,0.018603
789.109145,-0.093182,0.001968
789.142563,0.231818,0.067535
789.175982,-0.310606,0.074516
789.209400,-0.070455,0.049832
789.242817,0.022727,0.049533
789.276235,0.070455,0.038081
789.309652,0.456818,0.264270
789.343069,-0.004545,0.108593
789.376486,0.256818,0.050654
789.409902,-0.072727,0.076331
789.443319,0.459091,0.177258
789.476735,0.090909,0.055670
789.510150,0.095455,0.035428
789.543565,0.295455,0.148599
789.576980,0.018182,0.127920
789.610395,-0.002273,0.132925
789.643810,0.045455,0.050820
789.677224,-0.113636,0.037689
789.710638,0.045455,0.122390
789.744052,0.111364,0.082596
789.777465,-0.124242,0.018741
789.810878,0.050000,0.053926
789.844291,0.020455,0.060163
789.877703,0.472727,0.347423
789.911116,0.304545,0.197440
789.944528,0.093182,0.064313
789.977939,-0.027273,0.062158
790.011351,0.156818,0.088920
790.044762,0.211364,0.069188
790.078173,0.184091,0.135999
790.111583,0.327273,0.077139
790.144994,0.031061,0.037119
790.178404,-0.072727,0.061322
790.211813,-0.813636,0.055809
790.245223,-0.217424,0.067065
790.278632,0.118182,0.060473
790.312041,0.020455,0.039414
790.345450,0.204545,0.204230
790.378858,-0.022727,0.067228
790.412266,0.022727,0.019682
790.445674,0.095455,0.102726
790.479081,-0.047727,0.023918
790.512488,0.018182,0.070711
790.545895,0.143182,0.055519
790.579302,-0.062121,0.018603
790.612708,0.563636,0.178492
790.646115,0.393182,0.106764
790.679520,0.386364,0.130063
790.712926,0.277273,0.053926
790.746331,0.186364,0.032381
790.779736,0.045455,0.022727
790.813141,0.022727,0.113067
790.846545,0.065909,0.094003
790.879949,0.040909,0.132580
790.913353,-0.155303,0.037258
790.946757,0.086364,0.217078
790.980160,-0.022727,0.019682
791.013563,0.225000,0.115233
791.046966,0.154545,0.245075
791.080368,0.279545,0.032679
791.113771,-0.070455,0.049832
791.147173,0.352273,0.056533
791.180574,0.115909,0.103422
791.213976,0.138636,0.081652
791.247377,-0.155303,0.037258
791.280777,0.511364,0.236939
791.314178,0.043182,0.104909
791.347578,-0.124242,0.049167
791.380978,0.000000,0.032141
791.414378,0.047727,0.023918
791.447777,-0.279545,0.032679
791.481176,0.022727,0.067228
791.514575,0.088636,0.092059
791.547973,0.300000,0.056954
791.581372,0.322727,0.170727
791.614770,0.345455,0.120433
791.648167,0.217424,0.165000
791.681565,-0.000000,0.085038
791.714962,0.155303,0.037258
791.748359,0.136364,0.039365
791.781755,0.025000,0.067831
791.815152,0.040909,0.085129
791.848548,0.252273,0.137133
791.881943,0.161364,0.098037
791.915339,-0.075000,0.085545
791.948734,0.279545,0.032679
791.982129,-0.002273,0.033767
792.015523,0.181818,0.071870
792.048918,0.022727,0.067228
792.082312,0.038636,0.235277
792.115705,0.322727,0.116841
792.149099,0.022727,0.049533
792.182492,0.217424,0.037397
792.215885,-0.118182,0.060473
792.249278,0.050000,0.070528
792.282670,0.163636,0.021320
792.316062,0.136364,0.050820
792.349454,0.047727,0.094003
792.382845,-0.300000,0.047019
792.416236,0.022727,0.019682
792.449627,0.300000,0.125062
792.483018,0.422727,0.149154
792.516408,0.643182,0.229160
792.549798,0.384091,0.227054
792.583188,0.347727,0.140776
792.616578,0.447727,0.176437
792.649967,0.343182,0.124912
792.683356,0.438636,0.044114
792.716745,0.070455,0.020423
792.750133,-0.043182,0.123037
792.783521,0.136364,0.050820
792.816909,0.090909,0.032141
792.850296,0.254545,0.035791
792.883684,-0.062121,0.018603
792.917071,-0.022727,0.019682
792.950457,0.136364,0.068182
792.983844,-0.279545,0.085242
793.017230,0.031061,0.080890
793.050616,0.090909,0.101639
793.084001,-0.022727,0.037689
793.117386,0.209091,0.185586
793.150771,-0.050000,0.053926
793.184156,0.202273,0.197358
793.217541,0.250000,0.141476
793.250925,-0.093182,0.001968
793.284309,0.297727,0.065506
793.317692,-0.093182,0.032201
793.351075,0.022727,0.067228
793.384458,0.236364,0.079772
793.417841,0.045455,0.022727
793.451223,0.272727,0.236189
793.484606,0.297727,0.079732
793.517988,0.025000,0.113426
793.551369,0.227273,0.145526
793.584750,0.188636,0.058685
793.618131,-0.155303,0.037258
793.651512,0.045455,0.099066
793.684893,0.043182,0.076424
793.718273,-0.027273,0.062158
793.751653,-0.090909,0.045455
793.785032,-0.097727,0.061269
793.818411,0.277273,0.083906
793.851790,-0.217424,0.037397
793.885169,0.065909,0.094003
793.918548,-0.093182,0.032201
793.951926,0.155303,0.037258
793.985304,-0.136364,0.050820
794.018681,-0.093182,0.001968
794.052059,-0.238636,0.077698
794.085436,0.206818,0.035989
794.118812,0.155303,0.080953
794.152189,-0.002273,0.046619
794.185565,0.184091,0.054770
794.218941,0.062121,0.018603
794.252317,0.163636,0.081565
794.285692,0.018182,0.127920
794.319067,-0.031061,0.018568
794.352442,0.279545,0.195597
794.385816,0.365909,0.139004
794.419190,1.097727,0.300368
794.452564,1.115909,0.409411
794.485938,0.629545,0.100277
794.519311,-0.211364,0.088804
794.552684,0.095455,0.057631
794.586057,-0.229545,0.049311
794.619429,0.247727,0.246366
794.652802,-0.062121,0.018603
794.686173,0.465909,0.147618
794.719545,0.063636,0.143524
794.752916,0.000000,0.231774
794.786287,0.170455,0.394426
794.819658,-0.186364,0.032381
794.853029,0.204545,0.261857
794.886399,-0.043182,0.069337
794.919769,-0.163636,0.050206
794.953138,0.043182,0.076424
794.986508,-0.496970,0.038569
795.019877,-0.155303,0.066988
795.053245,-0.140909,0.025206
795.086614,-0.062121,0.049114
795.119982,-0.062121,0.066920
795.153350,0.136364,0.122390
795.186718,0.124242,0.049167
795.220085,0.140909,0.094339
795.253452,0.115909,0.049311
795.286819,0.062121,0.049114
795.320185,0.200000,0.259609
795.353551,-0.006818,0.119977
795.386917,-0.004545,0.158815
795.420283,-0.070455,0.038081
795.453648,-0.062121,0.049114
795.487013,0.124242,0.018741
795.520378,0.068182,0.059047
795.553742,0.070455,0.049832
795.587107,-0.022727,0.037689
795.620471,0.040909,0.132580
795.653834,-0.043182,0.041333
795.687197,0.000000,0.032141
795.720560,0.000000,0.064282
795.753923,-0.093182,0.055705
795.787286,0.302273,0.164937
795.820648,0.002273,0.046619
795.854010,-0.304545,0.042336
795.887371,0.213636,0.072834
795.920733,0.111364,0.068963
795.954094,0.097727,0.099761
795.987454,0.002273,0.033767
796.020815,0.115909,0.019117
796.054175,0.500000,0.258132
796.087535,0.186364,0.064403
796.120894,0.277273,0.029016
796.154254,-0.002273,0.033767
796.187613,-0.025000,0.038753
796.220971,0.070455,0.049832
796.254330,0.465909,0.085605
796.287688,3.038636,0.701448
796.321046,2.829545,0.747996
796.354403,2.706818,0.685448
796.387761,0.981818,0.434370
796.421118,0.062121,0.049114
796.454474,0.118182,0.023619
796.487831,-0.043182,0.069337
796.521187,0.256818,0.177458
796.554543,0.127273,0.309558
796.587898,0.225000,0.172649
796.621254,0.163636,0.074966
796.654609,-0.188636,0.049101
796.687963,0.065909,0.138445
796.721318,-0.418182,0.037483
796.754672,-0.513636,0.031079
796.788026,0.140909,0.051975
796.821379,-0.138636,0.067831
796.854732,0.370455,0.105302
796.888085,-0.070455,0.038081
796.921438,0.113636,0.059047
796.954790,-0.120455,0.115591
796.988142,0.256818,0.098981
797.021494,0.310606,0.049533
797.054846,-0.310606,0.093015
797.088197,0.217424,0.209174
797.121548,0.136364,0.093707
797.154899,0.000000,0.032141
797.188249,0.020455,0.050858
797.221599,0.156818,0.165936
797.254949,0.070455,0.038081
797.288298,0.118182,0.068484
797.321648,0.368182,0.209818
797.354996,-0.184091,0.071175
797.388345,0.259091,0.084642
797.421693,0.186364,0.055809
797.455041,-0.161364,0.066679
797.488389,0.277273,0.135661
797.521737,-0.070455,0.049832
797.555084,-0.045455,0.022727
797.588431,-0.341667,0.019911
797.621777,-0.022727,0.081153
797.655124,-0.186364,0.055809
797.688470,0.093182,0.032201
797.721815,0.155303,0.080953
797.755161,-0.050000,0.053926
797.788506,0.254545,0.035791
797.821851,0.352273,0.140446
797.855196,0.320455,0.173841
797.888540,0.015909,0.113107
797.921884,-0.065909,0.068588
797.955228,-0.248485,0.049376
797.988571,0.124242,0.018741
798.021914,0.486364,0.178767
798.055257,-0.354545,0.181420
798.088599,-0.062121,0.037137
798.121942,0.088636,0.112282
798.155284,1.818182,0.184637
798.188625,2.011364,0.606093
798.221967,2.702273,0.560543
798.255308,2.384091,0.410230
798.288649,0.515909,0.156583
798.321989,0.113636,0.108402
798.355329,0.318182,0.134456
798.388669,-0.420455,0.054201
798.422009,0.118182,0.039886
798.455348,0.231818,0.067535
798.488687,-0.022727,0.019682
798.522026,0.204545,0.126029
798.555365,0.084091,0.193472
798.588703,-0.209091,0.049167
798.622041,0.093182,0.001968
798.655378,0.259091,0.111038
798.688716,0.413636,0.198171
798.722053,0.062121,0.037137
798.755389,0.186364,0.032381
798.788726,0.093182,0.055705
798.822062,0.072727,0.061322
798.855398,0.186364,0.085129
798.888733,0.109091,0.136515
798.922069,-0.027273,0.053203
798.955404,0.206818,0.148177
798.988738,0.186364,0.032381
799.022073,0.297727,0.170542
799.055407,0.252273,0.065899
799.088741,0.250000,0.168166
799.122074,0.300000,0.072869
799.155408,0.543182,0.333408
799.188741,0.393182,0.147408
799.222073,0.550000,0.475880
799.255406,-0.025000,0.059732
799.288738,0.140909,0.025206
799.322069,0.000000,0.055670
799.355401,-0.217424,0.037397
799.388732,-0.155303,0.080953
799.422063,0.343182,0.096978
799.455394,0.165909,0.062521
799.488724,0.086364,0.189101
799.522054,-0.090909,0.055670
799.555384,0.156818,0.099864
799.588713,0.000000,0.096424
799.622042,-0.486364,0.055064
799.655371,0.138636,0.067831
799.688700,-0.211364,0.069188
799.722028,-0.124242,0.066959
799.755356,-0.068182,0.037689
799.788684,0.047727,0.051363
799.822011,-0.248485,0.049376
799.855338,0.025000,0.067831
799.888665,-0.050000,0.070528
799.921992,-0.143182,0.045270
799.955318,0.022727,0.049533
799.988644,0.031061,0.049101
800.021969,0.115909,0.037397
800.055295,1.006818,0.240381
800.088620,2.918182,0.275853
800.121945,5.597727,0.771981
800.155269,2.975000,0.473964
800.188593,0.556818,0.194431
800.221917,0.372727,0.167196
800.255241,-0.124242,0.080930
800.288564,0.370455,0.053142
800.321887,0.047727,0.051363
800.355210,-0.186364,0.032381
800.388532,0.143182,0.055519
800.421854,-0.186364,0.032381
800.455176,-0.163636,0.050206
800.488498,0.093182,0.064313
800.521819,0.302273,0.214008
800.555140,-0.077273,0.105308
800.588461,0.275000,0.123665
800.621781,-0.217424,0.037397
800.655101,-0.213636,0.085854
800.688421,0.088636,0.170693
800.721740,0.093182,0.032201
800.755060,0.086364,0.127009
800.788379,-0.140909,0.051975
800.821697,0.115909,0.067065
800.855015,0.184091,0.030555
800.888334,0.068182,0.141476
800.921651,0.115909,0.103422
800.954969,-0.065909,0.130771
800.988286,0.124242,0.074273
801.021603,-0.138636,0.075060
801.054919,0.093182,0.085060
801.088235,0.115909,0.019117
801.121551,-0.256818,0.050654
801.154867,0.072727,0.104841
801.188183,0.161364,0.036699
801.221498,0.350000,0.099248
801.254812,0.186364,0.096504
801.288127,0.062121,0.037137
801.321441,0.329545,0.121729
801.354755,0.320455,0.117012
801.388069,0.395455,0.144939
801.421382,-0.161364,0.280760
801.454695,0.179545,0.216336
801.488008,0.190909,0.143236
801.521320,0.275000,0.143033
801.554632,0.161364,0.098037
801.587944,0.593182,0.205688
801.621256,0.165909,0.042927
801.654567,-0.047727,0.040064
801.687878,-0.155303,0.018844
801.721189,0.000000,0.055670
801.754499,0.063636,0.128324
801.787809,0.002273,0.033767
801.821119,0.302273,0.049101
801.854428,-0.002273,0.056625
801.887737,0.315909,0.163743
801.921046,0.513636,0.163684
801.954355,0.881818,0.149171
801.987663,2.313636,0.585478
802.020971,5.590909,0.450551
802.054279,10.618182,1.150386
802.087586,4.518182,0.114722
802.120894,0.993939,0.484000
802.154200,0.325000,0.037809
802.187507,0.120455,0.071392
802.220813,0.252273,0.092059
802.254119,0.325000,0.037809
802.287425,-0.031061,0.018568
802.320730,0.259091,0.055064
802.354035,-0.372727,0.128806
802.387340,-0.047727,0.023918
802.420644,-0.029545,0.102821
802.453949,-0.186364,0.003936
802.487252,0.329545,0.201604
802.520556,-0.020455,0.081968
802.553859,0.124242,0.049167
802.587162,0.050000,0.053926
802.620465,0.409091,0.269871
802.653767,0.629545,0.197436
802.687069,0.022727,0.019682
802.720371,0.213636,0.125041
802.753673,0.140909,0.051975
802.786974,0.456818,0.152810
802.820275,0.186364,0.055809
802.853576,0.459091,0.182993
802.886876,-0.062121,0.018603
802.920176,-0.217424,0.074369
802.953476,-0.310606,0.019682
802.986775,0.496970,0.093376
803.020074,0.456818,0.315907
803.053373,0.250000,0.168166
803.086672,0.025000,0.059732
803.119970,0.072727,0.061322
803.153268,0.295455,0.310583
803.186565,-0.062121,0.049114
803.219863,-0.093182,0.064313
803.253160,0.072727,0.041161
803.286457,0.018182,0.089995
803.319753,-0.118182,0.039886
803.353049,0.075000,0.234176
803.386345,0.025000,0.021651
803.419641,0.163636,0.050206
803.452936,0.186364,0.115954
803.486231,0.155303,0.112924
803.519525,-0.093182,0.064313
803.552820,-0.259091,0.084642
803.586114,0.275000,0.070445
803.619408,0.093182,0.085060
803.652701,0.211364,0.088804
803.685994,0.118182,0.099274
803.719287,0.143182,0.078623
803.752580,0.118182,0.023619
803.785872,0.186364,0.140156
803.819164,0.252273,0.190703
803.852456,0.461364,0.302254
803.885747,1.181818,0.570450
803.919038,4.972727,0.718369
803.952329,10.472727,0.927340
803.985620,11.740909,0.256194
804.018910,5.331818,1.067715
804.052200,2.136364,0.266016
804.085489,0.090909,0.032141
804.118779,0.050000,0.070528
804.152068,-0.002273,0.056625
804.185357,-0.031061,0.018568
804.218645,0.000000,0.055670
804.251933,-0.062121,0.074239
804.285221,0.222727,0.305621
804.318508,-0.002273,0.033767
804.351796,0.350000,0.093900
804.385083,0.318182,0.152459
804.418369,0.154545,0.154612
804.451656,0.845455,0.543500
804.484942,-0.261364,0.088571
804.518227,-0.140909,0.040846
804.551513,0.184091,0.095907
804.584798,0.068182,0.059047
804.618083,0.325000,0.145112
804.651367,0.062121,0.018603
804.684652,0.384091,0.181545
804.717936,0.106818,0.178040
804.751219,0.155303,0.066988
804.784503,0.279545,0.116037
804.817786,0.124242,0.103353
804.851068,0.493182,0.160010
804.884351,0.281818,0.075103
804.917633,0.088636,0.057530
804.950915,-0.047727,0.040064
804.984196,0.093182,0.001968
805.017478,0.279545,0.116037
805.050759,0.093182,0.001968
805.084039,-0.093182,0.032201
805.117320,0.411364,0.301775
805.150600,0.063636,0.111062
805.183879,0.000000,0.055670
805.217159,0.002273,0.046619
805.250438,0.434848,0.162034
805.283717,-0.161364,0.066679
805.316995,0.156818,0.123037
805.350274,0.159091,0.067228
805.383552,0.186364,0.115954
805.416829,0.315909,0.208184
805.450107,0.484091,0.237788
805.483384,0.031061,0.074230
805.516660,0.436364,0.238019
805.549937,0.370455,0.159848
805.583213,0.248485,0.049376
805.616489,0.163636,0.067726
805.649764,0.581818,0.269603
805.683040,0.068182,0.037689
805.716315,0.109091,0.157590
805.749589,-0.097727,0.221830
805.782864,0.745455,0.140982
805.816138,1.553030,0.345238
805.849411,10.561364,0.701153
805.882685,23.730303,0.583467
805.915958,32.551515,1.351446
805.949231,16.629545,1.422602
805.982504,3.758333,0.716132
806.015776,0.618182,0.219032
806.049048,0.661364,0.317782
806.082319,0.043182,0.309381
806.115591,-0.050000,0.053926
806.148862,-0.072727,0.104841
806.182133,0.000000,0.096424
806.215403,0.070455,0.049832
806.248673,0.161364,0.148351
806.281943,-0.088636,0.097509
806.315213,-0.093182,0.085060
806.348482,-0.211364,0.061269
806.381751,0.341667,0.093064
806.415019,-0.140909,0.099664
806.448288,0.090909,0.045455
806.481556,0.206818,0.057977
806.514823,0.590152,0.185986
806.548091,0.118182,0.039886
806.581358,0.472727,0.309692
806.614625,0.161364,0.058421
806.647891,0.631818,0.271997
806.681158,0.031061,0.018568
806.714424,0.097727,0.099761
806.747689,0.254545,0.086483
806.780955,-0.143182,0.055519
806.814220,0.304545,0.281552
806.847484,0.297727,0.151282
806.880749,0.556818,0.207289
806.914013,0.202273,0.256534
806.947277,-0.143182,0.055519
806.980540,-0.217424,0.081017
807.013803,0.070455,0.093175
807.047066,-0.031061,0.018568
807.080329,0.093182,0.064313
807.113591,0.406818,0.220475
807.146853,0.684091,0.301261
807.180115,-0.124242,0.018741
807.213376,0.552273,0.079602
807.246637,0.431818,0.279046
807.279898,0.275000,0.212725
807.313159,0.031061,0.066910
807.346419,-0.306818,0.074299
807.379679,-0.095455,0.035428
807.412938,0.020455,0.186041
807.446198,0.209091,0.066959
807.479457,0.062121,0.066920
807.512715,0.322727,0.144510
807.545974,0.097727,0.088804
807.579232,0.002273,0.072612
807.612490,0.225000,0.330686
807.645747,0.086364,0.127009
807.679004,0.156818,0.118765
807.712261,1.288636,0.520533
807.745518,2.290909,0.245707
807.778774,8.044697,0.682033
807.812030,37.024242,1.715980
807.845285,62.743182,4.054762
807.878541,56.064394,2.806214
807.911796,14.879545,1.433921
807.945051,2.888636,0.649621
807.978305,-0.161364,0.141216
808.011559,-0.259091,0.044710
808.044813,0.500000,0.392991
808.078066,0.427273,0.207155
808.111320,0.188636,0.074230
808.144573,0.306818,0.117409
808.177825,0.181818,0.085038
808.211078,0.140909,0.082666
808.244330,0.138636,0.050347
808.277581,0.279545,0.055982
808.310833,0.138636,0.081652
808.344084,0.579545,0.084083
808.377335,0.259091,0.139860
808.410585,0.188636,0.058685
808.443835,-0.045455,0.122390
808.477085,0.213636,0.085854
808.510335,-0.322727,0.047835
808.543584,0.329545,0.058773
808.576833,-0.043182,0.052359
808.610082,0.124242,0.018741
808.643330,-0.420455,0.105841
808.676578,0.186364,0.032381
808.709826,0.138636,0.021651
808.743073,0.070455,0.098563
808.776320,0.027273,0.131504
808.809567,0.062121,0.161779
808.842814,0.209091,0.129924
808.876060,0.554545,0.223283
808.909306,0.031061,0.037119
808.942552,0.302273,0.196387
808.975797,0.359091,0.303586
809.009042,0.341667,0.098458
809.042287,-0.068182,0.019682
809.075531,-0.045455,0.130558
809.108775,0.227273,0.269871
809.142019,0.584091,0.132848
809.175262,0.248485,0.098333
809.208506,0.000000,0.064282
809.241748,0.275000,0.062686
809.274991,0.002273,0.072612
809.308233,0.415909,0.151042
809.341475,0.528030,0.232783
809.374717,0.093182,0.064313
809.407958,0.393182,0.106764
809.441199,-0.138636,0.130375
809.474440,0.243182,0.375012
809.507680,0.093182,0.200731
809.540921,0.248485,0.092932
809.574160,0.475000,0.192857
809.607400,0.156818,0.149565
809.640639,0.652273,0.116703
809.673878,1.190909,0.197766
809.707117,2.834091,0.156748
809.740355,18.852273,1.052027
809.773593,47.429545,1.062389
809.806831,95.449242,2.428960
809.840068,59.667424,2.224008
809.873305,14.547727,1.325491
809.906542,1.450000,0.167674
809.939778,1.356818,0.251306
809.973015,-0.310606,0.049533
810.006250,0.661364,0.548056
810.039486,0.186364,0.222716
810.072721,0.704545,0.211681
810.105956,0.506818,0.186817
810.139191,0.518182,0.153270
810.172425,0.217424,0.112970
810.205659,0.279545,0.032679
810.238893,0.654545,0.265121
810.272126,0.621212,0.207055
810.305359,1.261364,0.314251
810.338592,0.668182,0.211095
810.371825,1.031818,0.196916
810.405057,0.807576,0.152848
810.438289,0.870455,0.383793
810.471520,0.310606,0.165066
810.504751,0.302273,0.037119
810.537982,0.959091,0.449765
810.571213,0.947727,0.271367
810.604443,0.275000,0.219889
810.637673,0.093182,0.115904
810.670903,0.247727,0.149910
810.704133,0.177273,0.156851
810.737362,0.040909,0.124545
810.770591,-0.009091,0.138841
810.803819,-0.279545,0.085242
810.837047,0.043182,0.094551
810.870275,0.025000,0.038753
810.903503,0.220455,0.261480
810.936730,-0.254545,0.193489
810.969957,0.341667,0.049624
811.003184,0.248485,0.049376
811.036410,0.496970,0.303968
811.069636,0.138636,0.081652
811.102862,0.915909,0.415274
811.136087,-0.045455,0.145526
811.169312,-0.031061,0.129899
811.202537,0.315909,0.233889
811.235762,0.000000,0.055670
811.268986,0.248485,0.188403
811.302210,-0.027273,0.169284
811.335433,0.403788,0.113198
811.368656,0.047727,0.104416
811.401879,0.776515,0.250194
811.435102,1.242424,0.469086
811.468324,1.245455,0.369750
811.501546,2.188636,0.329872
811.534768,1.825000,0.794632
811.567990,0.400000,0.264184
811.601211,-0.281818,0.059786
811.634432,0.154545,0.173503
811.667652,1.263636,0.342361
811.700872,8.686364,0.559862
811.734092,38.295455,1.019629
811.767312,58.726515,0.729377
811.800531,44.247727,2.902434
811.833750,9.620455,1.177257
811.866969,2.386364,0.651900
811.900187,0.248485,0.130003
811.933405,0.124242,0.144957
811.966623,-0.248485,0.081057
811.999840,0.450000,0.236658
812.033057,0.062121,0.121692
812.066274,0.420455,0.246554
812.099490,-0.155303,0.066988
812.132707,0.504545,0.143074
812.165923,0.695455,0.149845
812.199138,0.190909,0.090110
812.232353,0.577273,0.423405
812.265568,0.590152,0.325379
812.298783,-0.090909,0.055670
812.331997,0.124242,0.066959
812.365211,0.155303,0.177050
812.398425,0.318182,0.122390
812.431638,0.743182,0.440445
812.464851,0.528030,0.134279
812.498064,0.354545,0.317954
812.531277,-0.138636,0.038753
812.564489,0.068182,0.171210
812.597701,0.217424,0.112970
812.630912,0.463636,0.214794
812.664123,1.000000,0.498966
