#{
#    "background_file": "Backgrounds\\\\bg_785.995nm_13bin_219st_244en_10.0s_110g_4x_13_seq.txt",
#    "ccd_image_settings": [
#        1,
#        13,
#        1,
#        1600,
#        219,
#        244
#    ],
#    "ccd_temperature": "-87",
#    "cdRatios": {
#        "mean": 0.9519155073885295,
#        "std": 0.007998281134993651
#    },
#    "center_lambda": 786.0,
#    "comments": "",
#    "dark_region": 24.441481590101052,
#    "date": "10/22/20 16:58:27PM",
#    "eff_field": 1.5,
#    "exposure": 10.0,
#    "fel_lambda": "15.0",
#    "fel_pol": "H",
#    "fel_pulses": 43,
#    "fel_pyro_cal": "0.012",
#    "fel_reprate": "1.07",
#    "fel_transmission": "1.0",
#    "fel_transmission_fits": {
#        "A": 1.0,
#        "C": 0.0,
#        "Mu": 0.0
#    },
#    "fieldInt": {
#        "mean": 5567.221806818182,
#        "std": 276.91497754945016
#    },
#    "fieldStrength": {
#        "mean": 34.21836742424243,
#        "std": 0.8801987662787253
#    },
#    "fpTime": {
#        "mean": 1.0151661256332478,
#        "std": 0.06595623914880115
#    },
#    "gain": 110,
#    "grating": 3,
#    "images_in_sequence": [
#        "hsg_820nm_c123_am45_HAna433.txt",
#        "hsg_820nm_c123_am45_HAna434.txt",
#        "hsg_820nm_c123_am45_HAna435.txt",
#        "hsg_820nm_c123_am45_HAna436.txt"
#    ],
#    "nir_lambda": "819.98",
#    "nir_pola": "-45",
#    "nir_polg": "0",
#    "nir_power": "100.0",
#    "pulseEnergies": {
#        "mean": 1.6898087121212122,
#        "std": 0.09355798966347333
#    },
#    "pyroVoltage": {
#        "mean": 0.14801604409259328,
#        "std": 0.009134751570576895
#    },
#    "rotatorAngle": 202.4999963378817,
#    "sample_Temp": "55",
#    "sample_name": "L001218.C1",
#    "series": "820_Fan",
#    "slits": "60",
#    "spec_step": "",
#    "window_trans": 0.92,
#    "y_max": 2,
#    "y_min": 1
#}
#
#
#
#
#
#
#
#
#
#
#
#
#
#
#
#
#
#
#
#
#
#
#
#
#
#
Wavelength,Signal,error
nm,arb. u.,arb.u.
Wavelength,820_Fan,error
759.194366,0.263636,0.290803
759.228015,0.229545,0.145006
759.261663,0.279545,0.096604
759.295311,0.093182,0.085060
759.328959,0.250000,0.161907
759.362607,-0.029545,0.092228
759.396254,0.245455,0.349646
759.429901,0.018182,0.062984
759.463548,0.202273,0.094823
759.497194,-0.063636,0.136136
759.530841,0.341667,0.067295
759.564487,0.290909,0.191342
759.598133,0.409091,0.162305
759.631779,-0.238636,0.150219
759.665424,0.225000,0.172649
759.699069,0.200000,0.259609
759.732714,0.313636,0.217078
759.766359,0.106818,0.153080
759.800003,0.472727,0.127110
759.833648,0.227273,0.113636
759.867292,-0.188636,0.037119
759.900935,0.159091,0.218879
759.934579,0.063636,0.078335
759.968222,0.104545,0.145650
760.001865,0.270455,0.168255
760.035508,0.527273,0.221844
760.069151,0.279545,0.200809
760.102793,0.252273,0.086266
760.136435,0.315909,0.208184
760.170077,-0.045455,0.039365
760.203718,0.131818,0.303586
760.237360,-0.518182,0.095021
760.271001,-0.252273,0.057530
760.304642,0.086364,0.088695
760.338283,-0.004545,0.098622
760.371923,0.434848,0.214204
760.405563,0.636364,0.417836
760.439203,0.000000,0.032141
760.472843,0.165909,0.053626
760.506482,0.086364,0.212266
760.540122,0.138636,0.081652
760.573761,0.281818,0.087787
760.607399,0.320455,0.196177
760.641038,0.045455,0.050820
760.674676,0.350000,0.039821
760.708314,0.281818,0.050412
760.741952,0.143182,0.055519
760.775589,-0.052273,0.103071
760.809227,-0.143182,0.055519
760.842864,-0.022727,0.019682
760.876501,-0.204545,0.067228
760.910137,0.136364,0.068182
760.943774,0.327273,0.159933
760.977410,0.300000,0.133066
761.011046,0.250000,0.074516
761.044681,0.113636,0.074516
761.078317,0.352273,0.111775
761.111952,0.150000,0.328934
761.145587,-0.140909,0.099664
761.179221,0.031061,0.080890
761.212856,-0.465909,0.085605
761.246490,0.156818,0.099864
761.280124,0.204545,0.152035
761.313758,0.093182,0.032201
761.347391,0.352273,0.107054
761.381024,0.000000,0.064282
761.414657,0.186364,0.195547
761.448290,0.159091,0.059047
761.481923,0.159091,0.059047
761.515555,0.543182,0.500726
761.549187,0.070455,0.148699
761.582819,-0.140909,0.069048
761.616450,-0.062121,0.133821
761.650082,-0.206818,0.035989
761.683713,0.402273,0.204504
761.717344,-0.095455,0.057631
761.750974,0.018182,0.153607
761.784605,-0.248485,0.081057
761.818235,0.136364,0.068182
761.851865,0.165909,0.110333
761.885494,-0.072727,0.197191
761.919124,0.138636,0.050347
761.952753,-0.124242,0.080930
761.986382,0.236364,0.047238
762.020010,0.540909,0.209325
762.053639,0.279545,0.167115
762.087267,0.211364,0.069188
762.120895,0.062121,0.018603
762.154523,-0.186364,0.032381
762.188150,0.043182,0.146070
762.221777,0.175000,0.168653
762.255404,0.036364,0.137721
762.289031,0.136364,0.093707
762.322658,0.031061,0.018568
762.356284,0.106818,0.138929
762.389910,-0.506818,0.070299
762.423536,-0.088636,0.073320
762.457161,-0.209091,0.037206
762.490786,0.043182,0.123037
762.524411,-0.118182,0.088257
762.558036,0.065909,0.142127
762.591661,0.068182,0.037689
762.625285,-0.034091,0.200319
762.658909,0.129545,0.169722
762.692533,0.068182,0.171210
762.726157,0.227273,0.177506
762.759780,0.490909,0.386176
762.793403,0.338636,0.181402
762.827026,0.020455,0.075404
762.860649,0.134091,0.105400
762.894271,0.347727,0.140776
762.927893,-0.072727,0.104841
762.961515,0.000000,0.000000
762.995137,0.070455,0.113198
763.028758,0.727273,0.285677
763.062379,-0.143182,0.045270
763.096000,0.072727,0.082822
763.129621,0.179545,0.117233
763.163241,-0.115909,0.067065
763.196862,0.186364,0.003936
763.230481,0.456818,0.264270
763.264101,-0.031061,0.049101
763.297721,-0.062121,0.049114
763.331340,-0.118182,0.039886
763.364959,0.313636,0.191813
763.398578,0.597727,0.455889
763.432196,0.222727,0.126193
763.465814,0.040909,0.178998
763.499432,0.124242,0.018741
763.533050,0.186364,0.064403
763.566668,-0.143182,0.055519
763.600285,-0.193182,0.122785
763.633902,0.229545,0.049311
763.667519,0.370455,0.042321
763.701135,0.111364,0.152810
763.734752,0.202273,0.183807
763.768368,0.309091,0.129206
763.801984,-0.140909,0.025206
763.835599,0.115909,0.019117
763.869215,0.340909,0.117546
763.902830,-0.062121,0.049114
763.936444,0.265909,0.254776
763.970059,0.031061,0.018568
764.003673,0.365909,0.123247
764.037288,0.231818,0.049948
764.070901,-0.354545,0.077806
764.104515,0.118182,0.171708
764.138128,-0.002273,0.072612
764.171742,-0.031818,0.111038
764.205354,0.018182,0.105822
764.238967,0.400000,0.109280
764.272580,-0.145455,0.109280
764.306192,0.088636,0.097509
764.339804,0.293182,0.139375
764.373415,-0.120455,0.090532
764.407027,0.309091,0.179416
764.440638,-0.045455,0.068182
764.474249,-0.020455,0.050858
764.507860,-0.322727,0.047835
764.541470,0.050000,0.070528
764.575080,0.388636,0.282136
764.608690,0.095455,0.080128
764.642300,-0.279545,0.032679
764.675909,-0.075000,0.116259
764.709519,0.390909,0.157262
764.743128,0.340909,0.196496
764.776736,0.238636,0.110613
764.810345,0.163636,0.122137
764.843953,-0.052273,0.086744
764.877561,0.097727,0.069188
764.911169,0.095455,0.080128
764.944776,0.213636,0.065358
764.978384,0.315909,0.132341
765.011991,0.313636,0.197126
765.045598,0.138636,0.098824
765.079204,0.506818,0.142961
765.112810,0.040909,0.101716
765.146416,-0.052273,0.173930
765.180022,0.434848,0.081407
765.213628,-0.188636,0.037119
765.247233,0.063636,0.111062
765.280838,0.186364,0.032381
765.314443,0.136364,0.050820
765.348048,0.031061,0.074230
765.381652,0.265909,0.278042
765.415256,0.388636,0.255222
765.448860,0.070455,0.020423
765.482463,-0.238636,0.153619
765.516067,0.163636,0.074966
765.549670,0.093182,0.064313
765.583273,0.315909,0.205688
765.616875,0.093182,0.055705
765.650478,0.172727,0.449357
765.684080,0.181818,0.143740
765.717682,0.068182,0.087286
765.751283,0.209091,0.177039
765.784885,0.338636,0.205437
765.818486,0.088636,0.057530
765.852087,0.411364,0.232116
765.885687,-0.031061,0.018568
765.919288,0.156818,0.165936
765.952888,0.304545,0.100284
765.986488,0.062121,0.018603
766.020087,-0.062121,0.112884
766.053687,0.320455,0.223269
766.087286,0.838636,0.345281
766.120885,0.088636,0.086266
766.154484,0.345455,0.170197
766.188082,0.186364,0.085129
766.221680,-0.050000,0.146639
766.255278,-0.097727,0.134969
766.288876,0.247727,0.153316
766.322473,0.320455,0.249491
766.356070,0.155303,0.074299
766.389667,-0.002273,0.079407
766.423264,-0.124242,0.066959
766.456860,0.320455,0.148177
766.490457,0.138636,0.103920
766.524053,0.156818,0.237614
766.557648,0.206818,0.102921
766.591244,-0.004545,0.074793
766.624839,0.081818,0.205955
766.658434,0.525000,0.285503
766.692029,0.159091,0.081153
766.725623,-0.118182,0.039886
766.759217,-0.070455,0.049832
766.792811,-0.215909,0.127936
766.826405,0.088636,0.073320
766.859999,0.186364,0.055809
766.893592,0.559091,0.179344
766.927185,0.465909,0.222898
766.960777,-0.352273,0.046508
766.994370,0.131818,0.179574
767.027962,-0.025000,0.087751
767.061554,0.136364,0.174571
767.095146,0.365909,0.139004
767.128737,-0.209091,0.049167
767.162329,-0.140909,0.051975
767.195920,0.043182,0.104909
767.229510,0.204545,0.059047
767.263101,0.043182,0.094551
767.296691,0.090909,0.055670
767.330281,-0.029545,0.203872
767.363871,0.056818,0.225776
767.397460,0.229545,0.092897
767.431050,0.420455,0.131911
767.464639,0.372727,0.085401
767.498227,0.320455,0.097774
767.531816,0.138636,0.050347
767.565404,-0.261364,0.207289
767.598992,0.156818,0.099864
767.632580,0.154545,0.140616
767.666168,-0.063636,0.101334
767.699755,0.015909,0.093064
767.733342,0.572727,0.212083
767.766929,0.295455,0.168166
767.800515,-0.022727,0.049533
767.834101,0.095455,0.035428
767.867687,0.031061,0.121686
767.901273,0.459091,0.113249
767.934859,-0.254545,0.148129
767.968444,0.115909,0.067065
768.002029,0.113636,0.049533
768.035614,0.084091,0.193472
768.069198,0.213636,0.125041
768.102783,-0.425000,0.284652
768.136367,0.062121,0.037137
768.169950,0.154545,0.349350
768.203534,-0.047727,0.040064
768.237117,0.156818,0.076424
768.270700,0.315909,0.153989
768.304283,0.136364,0.050820
768.337866,-0.306818,0.098248
768.371448,0.109091,0.120433
768.405030,-0.138636,0.050347
768.438612,0.465909,0.140446
768.472193,0.217424,0.019117
768.505775,0.231818,0.152171
768.539356,0.256818,0.130494
768.572936,0.104545,0.183332
768.606517,-0.213636,0.085854
768.640097,0.202273,0.131362
768.673677,-0.045455,0.068182
768.707257,0.093182,0.032201
768.740836,0.070455,0.038081
768.774416,0.340909,0.223549
768.807995,0.138636,0.237179
768.841574,0.118182,0.068484
768.875152,0.397727,0.043643
768.908730,-0.161364,0.036699
768.942308,0.265909,0.302936
768.975886,-0.045455,0.134456
769.009464,0.484091,0.338222
769.043041,-0.004545,0.087522
769.076618,0.661364,0.366119
769.110195,-0.093182,0.001968
769.143771,-0.009091,0.123064
769.177348,0.154545,0.164329
769.210924,-0.186364,0.032381
769.244499,0.043182,0.052359
769.278075,0.124242,0.037206
769.311650,0.229545,0.037397
769.345225,0.156818,0.076424
769.378800,0.140909,0.051975
769.412375,0.222727,0.209325
769.445949,-0.211364,0.041082
769.479523,0.181818,0.085038
769.513097,0.134091,0.083529
769.546670,0.040909,0.124545
769.580243,-0.341667,0.019911
769.613816,0.020455,0.060163
769.647389,-0.350000,0.051174
769.680962,-0.072727,0.127110
769.714534,-0.047727,0.051363
769.748106,0.386364,0.185683
769.781678,0.095455,0.102726
769.815249,-0.097727,0.076289
769.848820,-0.259091,0.078302
769.882391,0.386364,0.334601
769.915962,0.163636,0.050206
769.949533,-0.075000,0.072469
769.983103,0.152273,0.150185
770.016673,0.038636,0.126882
770.050243,-0.006818,0.119977
770.083812,-0.234091,0.041706
770.117381,-0.004545,0.087522
770.150950,0.277273,0.195018
770.184519,-0.259091,0.044710
770.218088,-0.093182,0.055705
770.251656,0.038636,0.118460
770.285224,-0.020455,0.088044
770.318791,0.118182,0.088257
770.352359,0.136364,0.075378
770.385926,0.552273,0.097137
770.419493,0.043182,0.052359
770.453060,-0.097727,0.142418
770.486626,0.138636,0.021651
770.520192,-0.209091,0.037206
770.553758,0.136364,0.050820
770.587324,0.411364,0.144291
770.620890,0.000000,0.115887
770.654455,0.561364,0.166651
770.688020,0.152273,0.131872
770.721584,0.202273,0.156484
770.755149,-0.009091,0.123064
770.788713,0.040909,0.071978
770.822277,0.113636,0.074516
770.855841,-0.425000,0.108682
770.889404,-0.043182,0.069337
770.922967,0.095455,0.116841
770.956530,0.684091,0.276216
770.990093,0.184091,0.160396
771.023655,0.062121,0.049114
771.057217,0.047727,0.023918
771.090779,-0.070455,0.098563
771.124341,-0.370455,0.076963
771.157902,0.322727,0.173726
771.191463,0.525000,0.378808
771.225024,0.259091,0.106285
771.258585,-0.075000,0.132848
771.292145,0.275000,0.160074
771.325705,-0.050000,0.053926
771.359265,0.181818,0.160706
771.392825,0.368182,0.209818
771.426384,0.340909,0.245570
771.459943,0.403788,0.103671
771.493502,0.022727,0.049533
771.527061,0.188636,0.037119
771.560619,-0.165909,0.062521
771.594177,0.470455,0.145823
771.627735,0.227273,0.093707
771.661293,0.272727,0.115887
771.694850,-0.277273,0.077506
771.728407,-0.181818,0.055670
771.761964,0.568182,0.209227
771.795521,0.181818,0.055670
771.829077,0.045455,0.022727
771.862633,0.018182,0.070711
771.896189,-0.155303,0.074299
771.929744,-0.047727,0.068588
771.963300,0.043182,0.052359
771.996855,0.156818,0.118765
772.030409,0.156818,0.142490
772.063964,0.609091,0.443199
772.097518,-0.147727,0.182792
772.131072,-0.163636,0.067726
772.164626,0.595455,0.252293
772.198180,0.000000,0.032141
772.231733,0.090909,0.055670
772.265286,0.545455,0.330914
772.298839,0.022727,0.067228
772.332391,0.293182,0.290703
772.365943,0.268182,0.227307
772.399495,0.490909,0.115708
772.433047,0.031061,0.158550
772.466598,-0.211364,0.061269
772.500150,0.161364,0.086863
772.533701,0.275000,0.131754
772.567251,0.204545,0.067228
772.600802,0.068182,0.067228
772.634352,0.234091,0.069560
772.667902,0.163636,0.067726
772.701452,0.031061,0.080890
772.735001,0.000000,0.032141
772.768550,0.204545,0.103528
772.802099,-0.062121,0.103328
772.835648,0.217424,0.037397
772.869196,0.022727,0.103528
772.902744,-0.118182,0.039886
772.936292,0.095455,0.073399
772.969840,0.120455,0.063748
773.003387,0.136364,0.068182
773.036934,0.062121,0.074239
773.070481,0.297727,0.261420
773.104028,0.047727,0.040064
773.137574,-0.068182,0.059047
773.171120,-0.090909,0.032141
773.204666,0.386364,0.182880
773.238212,0.000000,0.055670
773.271757,0.302273,0.298643
773.305302,0.229545,0.049311
773.338847,0.384091,0.270643
773.372391,0.340909,0.245570
773.405936,0.290909,0.228271
773.439480,0.043182,0.041333
773.473024,0.211364,0.118678
773.506567,0.325000,0.093064
773.540110,-0.050000,0.053926
773.573653,-0.002273,0.085666
773.607196,0.272727,0.115887
773.640739,0.065909,0.094003
773.674281,-0.027273,0.110128
773.707823,0.020455,0.088044
773.741365,0.259091,0.055064
773.774906,0.345455,0.164015
773.808447,0.090909,0.032141
773.841988,0.211364,0.061269
773.875529,0.313636,0.191813
773.909070,0.013636,0.311844
773.942610,-0.088636,0.112282
773.976150,0.000000,0.055670
774.009689,0.134091,0.228979
774.043229,-0.234091,0.083095
774.076768,0.163636,0.021320
774.110307,0.109091,0.176162
774.143845,0.065909,0.060591
774.177384,0.481818,0.389347
774.210922,0.111364,0.152810
774.244460,0.379545,0.158387
774.277997,0.227273,0.145526
774.311535,0.115909,0.019117
774.345072,0.136364,0.050820
774.378609,-0.211364,0.041082
774.412145,0.111364,0.068963
774.445682,0.188636,0.058685
774.479218,0.031061,0.018568
774.512754,0.479545,0.157307
774.546289,-0.068182,0.087286
774.579824,0.020455,0.126555
774.613359,0.018182,0.070711
774.646894,0.090909,0.071870
774.680429,-0.031818,0.143506
774.713963,0.388636,0.116126
774.747497,0.163636,0.021320
774.781031,0.272727,0.187414
774.814564,-0.215909,0.127936
774.848097,-0.138636,0.038753
774.881630,0.088636,0.073320
774.915163,0.222727,0.185795
774.948696,0.115909,0.074369
774.982228,0.138636,0.098824
775.015760,0.211364,0.061269
775.049291,-0.140909,0.025206
775.082823,0.109091,0.111526
775.116354,-0.025000,0.038753
775.149885,-0.072727,0.076331
775.183416,-0.043182,0.052359
775.216946,-0.400000,0.068635
775.250476,0.359091,0.240984
775.284006,0.115909,0.019117
775.317535,-0.213636,0.056909
775.351065,-0.070455,0.020423
775.384594,0.040909,0.190191
775.418123,0.611364,0.508354
775.451651,-0.125000,0.125901
775.485180,-0.463636,0.052421
775.518708,0.018182,0.105822
775.552235,-0.070455,0.049832
775.585763,-0.120455,0.115591
775.619290,0.138636,0.050347
775.652817,0.131818,0.125371
775.686344,0.018182,0.115171
775.719870,0.036364,0.151984
775.753397,-0.025000,0.067831
775.786923,0.143182,0.200680
775.820448,-0.002273,0.190432
775.853974,0.613636,0.261857
775.887499,0.190909,0.077806
775.921024,0.213636,0.065358
775.954549,-0.238636,0.110613
775.988073,-0.095455,0.035428
776.021597,-0.004545,0.059396
776.055121,-0.097727,0.076289
776.088645,-0.006818,0.101302
776.122168,-0.445455,0.086603
776.155691,0.252273,0.065899
776.189214,-0.209091,0.049167
776.222737,0.113636,0.037689
776.256259,-0.288636,0.120192
776.289781,0.155303,0.018844
776.323303,0.186364,0.032381
776.356824,0.279545,0.096604
776.390346,0.554545,0.201390
776.423867,0.159091,0.067228
776.457387,-0.465909,0.009841
776.490908,0.095455,0.057631
776.524428,-0.122727,0.093900
776.557948,0.079545,0.257318
776.591468,0.093182,0.085060
776.624987,0.097727,0.069188
776.658506,0.093182,0.055705
776.692025,-0.002273,0.132925
776.725544,-0.259091,0.063758
776.759062,-0.070455,0.038081
776.792581,-0.050000,0.105700
776.826099,0.300000,0.034317
776.859616,0.500000,0.214409
776.893134,0.209091,0.037206
776.926651,0.186364,0.064403
776.960167,-0.138636,0.038753
776.993684,0.134091,0.070078
777.027200,0.302273,0.049101
777.060716,0.025000,0.038753
777.094232,0.043182,0.076424
777.127748,-0.027273,0.123399
777.161263,0.070455,0.098563
777.194778,0.027273,0.062158
777.228293,0.343182,0.140482
777.261807,0.118182,0.060473
777.295322,0.179545,0.161679
777.328836,-0.170455,0.107054
777.362349,-0.050000,0.070528
777.395863,0.520455,0.454607
777.429376,-0.002273,0.102165
777.462889,0.131818,0.133357
777.496401,0.156818,0.099864
777.529914,0.045455,0.050820
777.563426,-0.025000,0.059732
777.596938,0.434091,0.136378
777.630449,0.388636,0.229655
777.663961,0.152273,0.150185
777.697472,0.068182,0.113067
777.730983,-0.163636,0.098753
777.764493,0.015909,0.130098
777.798004,1.500000,0.615318
777.831514,-0.063636,0.101334
777.865023,0.020455,0.081968
777.898533,0.115909,0.049311
777.932042,0.140909,0.025206
777.965551,0.161364,0.036699
777.999060,-0.115909,0.067065
778.032568,0.231818,0.081407
778.066076,0.136364,0.050820
778.099584,0.159091,0.113067
778.133092,0.113636,0.081153
778.166599,0.138636,0.067831
778.200107,0.015909,0.103571
778.233613,-0.070455,0.020423
778.267120,-0.186364,0.064403
778.300626,0.347727,0.116703
778.334132,-0.252273,0.057530
778.367638,0.043182,0.069337
778.401144,-0.027273,0.083443
778.434649,0.138636,0.038753
778.468154,0.155303,0.080953
778.501659,0.202273,0.135237
778.535163,0.031061,0.037119
778.568668,0.415909,0.170329
778.602172,0.155303,0.066988
778.635675,-0.447727,0.111959
778.669179,0.306818,0.211605
778.702682,0.179545,0.117233
778.736185,0.211364,0.069188
778.769688,0.606818,0.160815
778.803190,0.452273,0.275748
778.836692,0.486364,0.071401
778.870194,0.390909,0.157262
778.903696,0.075000,0.072469
778.937197,0.393182,0.238439
778.970698,0.118182,0.023619
779.004199,0.043182,0.069337
779.037699,-0.025000,0.038753
779.071200,0.138636,0.021651
779.104700,0.022727,0.037689
779.138199,0.138636,0.021651
779.171699,0.040909,0.132580
779.205198,0.204545,0.232608
779.238697,-0.025000,0.059732
779.272196,0.000000,0.000000
779.305694,-0.062121,0.074239
779.339192,0.250000,0.121861
779.372690,0.206818,0.125531
779.406188,0.186364,0.096504
779.439685,-0.047727,0.023918
779.473182,-0.095455,0.086334
779.506679,0.163636,0.050206
779.540176,0.310606,0.113067
779.573672,-0.077273,0.186682
779.607168,0.665909,0.220662
779.640664,0.020455,0.075404
779.674160,-0.052273,0.080570
779.707655,0.340909,0.331499
779.741150,0.302273,0.112878
779.774644,0.047727,0.051363
779.808139,0.259091,0.063758
779.841633,0.295455,0.108402
779.875127,0.309091,0.185084
779.908621,0.159091,0.081153
779.942114,-0.168182,0.108211
779.975607,0.025000,0.038753
780.009100,-0.256818,0.068059
780.042593,0.310606,0.049533
780.076085,-0.140909,0.025206
780.109577,-0.097727,0.061269
780.143069,0.155303,0.049206
780.176560,0.002273,0.072612
780.210052,0.297727,0.151282
780.243543,0.111364,0.204807
780.277033,-0.093182,0.064313
780.310524,0.093182,0.160718
780.344014,0.310606,0.098412
780.377504,0.040909,0.096504
780.410994,-0.125000,0.125901
780.444483,0.300000,0.107277
780.477972,0.302273,0.066910
780.511461,0.209091,0.018741
780.544950,0.538636,0.556455
780.578438,0.070455,0.074715
780.611926,0.000000,0.032141
780.645414,0.213636,0.085854
780.678902,0.062121,0.018603
780.712389,0.143182,0.096337
780.745876,0.156818,0.082908
780.779363,0.368182,0.051975
780.812849,0.131818,0.125371
780.846335,0.025000,0.148872
780.879821,0.090909,0.071870
780.913307,0.043182,0.069337
780.946792,0.188636,0.058685
780.980277,0.252273,0.121133
781.013762,-0.004545,0.162034
781.047247,0.134091,0.083529
781.080731,0.111364,0.088629
781.114215,0.204545,0.103528
781.147699,0.138636,0.038753
781.181183,-0.165909,0.062521
781.214666,0.227273,0.177506
781.248149,0.022727,0.067228
781.281632,-0.022727,0.019682
781.315114,0.068182,0.059047
781.348596,0.581818,0.161859
781.382078,0.454545,0.270827
781.415560,0.018182,0.105822
781.449041,0.088636,0.211263
781.482522,0.227273,0.223838
781.516003,0.068182,0.087286
781.549484,0.015909,0.103571
781.582964,0.297727,0.203669
781.616444,0.215909,0.123832
781.649924,-0.097727,0.076289
781.683404,0.202273,0.135237
781.716883,-0.093182,0.064313
781.750362,0.000000,0.055670
781.783841,0.206818,0.057977
781.817319,-0.004545,0.059396
781.850797,0.352273,0.271957
781.884275,0.465909,0.195755
781.917753,0.279545,0.096604
781.951230,0.111364,0.088629
781.984707,0.279545,0.055982
782.018184,-0.043182,0.041333
782.051661,-0.004545,0.108593
782.085137,0.177273,0.192351
782.118613,0.217424,0.037397
782.152089,0.310606,0.037689
782.185564,0.120455,0.071392
782.219040,0.115909,0.081017
782.252515,0.256818,0.081842
782.285989,0.234091,0.052654
782.319464,0.031061,0.066910
782.352938,0.050000,0.043301
782.386412,0.215909,0.105841
782.419885,0.022727,0.019682
782.453359,-0.279545,0.055982
782.486832,0.252273,0.047714
782.520305,0.340909,0.113067
782.553777,-0.097727,0.061269
782.587249,-0.236364,0.125145
782.620721,-0.654545,0.064603
782.654193,0.443182,0.233093
782.687665,0.279545,0.032679
782.721136,-0.006818,0.090532
782.754607,0.477273,0.218879
782.788077,0.386364,0.137777
782.821548,0.159091,0.113067
782.855018,0.040909,0.124545
782.888488,0.045455,0.068182
782.921957,0.300000,0.097171
782.955427,-0.093182,0.032201
782.988896,0.161364,0.161679
783.022365,0.502273,0.355090
783.055833,0.454545,0.298065
783.089301,0.088636,0.107583
783.122769,-0.279545,0.032679
783.156237,0.138636,0.038753
783.189704,0.247727,0.119199
783.223172,0.124242,0.037206
783.256638,0.156818,0.226484
783.290105,-0.022727,0.081153
783.323571,-0.047727,0.051363
783.357037,0.065909,0.060591
783.390503,-0.075000,0.107005
783.423969,0.050000,0.077506
783.457434,0.368182,0.209818
783.490899,-0.002273,0.046619
783.524364,0.168182,0.155262
783.557828,0.279545,0.005905
783.591292,0.547727,0.186041
783.624756,0.293182,0.160074
783.658220,0.200000,0.151576
783.691683,-0.140909,0.025206
783.725146,0.213636,0.220665
783.758609,0.300000,0.125062
783.792072,0.550000,0.315271
783.825534,0.113636,0.081153
783.858996,0.088636,0.073320
783.892458,0.159091,0.049533
783.925919,-0.093182,0.128580
783.959381,-0.043182,0.069337
783.992842,-0.256818,0.022355
784.026302,0.131818,0.154863
784.059763,0.118182,0.142077
784.093223,0.118182,0.068484
784.126683,0.206818,0.080377
784.160142,0.095455,0.057631
784.193601,0.040909,0.106673
784.227060,0.086364,0.118596
784.260519,0.115909,0.019117
784.293978,0.134091,0.207687
784.327436,0.163636,0.038569
784.360894,0.236364,0.057135
784.394352,0.045455,0.039365
784.427809,-0.072727,0.149517
784.461266,0.547727,0.297204
784.494723,0.111364,0.104663
784.528180,-0.188636,0.058685
784.561636,0.002273,0.096978
784.595092,-0.031061,0.049101
784.628548,0.040909,0.078828
784.662003,0.372727,0.225126
784.695458,0.272727,0.167011
784.728913,-0.072727,0.061322
784.762368,0.206818,0.148177
784.795823,0.186364,0.055809
784.829277,0.184091,0.044347
784.862731,0.256818,0.122322
784.896184,0.045455,0.039365
784.929637,-0.372727,0.056224
784.963091,0.256818,0.068059
784.996543,0.120455,0.055052
785.029996,0.497727,0.318431
785.063448,0.295455,0.133975
785.096900,0.506818,0.197567
785.130352,0.310606,0.074516
785.163803,0.111364,0.130968
785.197254,0.343182,0.299972
785.230705,0.088636,0.073320
785.264156,-0.168182,0.087049
785.297606,0.018182,0.070711
785.331056,0.115909,0.129978
785.364506,-0.052273,0.080570
785.397955,0.650000,0.237356
785.431405,0.031061,0.112878
785.464854,-0.375000,0.040576
785.498302,-0.070455,0.049832
785.531751,0.050000,0.070528
785.565199,-0.045455,0.050820
785.598647,0.036364,0.315508
785.632094,-0.165909,0.089672
785.665542,0.315909,0.163743
785.698989,0.181818,0.111340
785.732436,-0.047727,0.068588
785.765882,0.068182,0.059047
785.799328,0.136364,0.050820
785.832774,0.138636,0.021651
785.866220,0.320455,0.080377
785.899665,-0.129545,0.204757
785.933111,0.065909,0.202142
785.966555,-0.304545,0.027555
786.000000,0.047727,0.051363
786.033444,0.184091,0.106133
786.066888,0.259091,0.139860
786.100332,0.295455,0.133975
786.133776,0.247727,0.131558
786.167219,0.038636,0.118460
786.200662,0.068182,0.037689
786.234104,-0.025000,0.021651
786.267547,0.079545,0.222898
786.300989,0.181818,0.096424
786.334431,0.155303,0.049206
786.367872,-0.031061,0.049101
786.401314,0.250000,0.074516
786.434755,0.179545,0.267572
786.468196,0.238636,0.100842
786.501636,0.015909,0.121899
786.535076,-0.090909,0.055670
786.568516,0.168182,0.117370
786.601956,0.447727,0.097137
786.635395,0.227273,0.122390
786.668834,0.090909,0.045455
786.702273,0.065909,0.051363
786.735712,0.254545,0.086483
786.769150,0.136364,0.075378
786.802588,-0.311364,0.179484
786.836026,-0.093182,0.085060
786.869463,0.000000,0.032141
786.902900,0.568182,0.325207
786.936337,0.365909,0.114559
786.969774,0.434848,0.049948
787.003210,0.225000,0.139560
787.036646,0.154545,0.120861
787.070082,-0.050000,0.070528
787.103518,-0.002273,0.116348
787.136953,-0.075000,0.144041
787.170388,0.372727,0.111618
787.203823,0.120455,0.063748
787.237257,-0.120455,0.071392
787.270691,-0.072727,0.061322
787.304125,0.597727,0.204504
787.337559,0.538636,0.219018
787.370992,-0.304545,0.027555
787.404425,0.315909,0.215499
787.437858,0.070455,0.093175
787.471290,-0.259091,0.090539
787.504723,0.000000,0.064282
787.538155,0.256818,0.022355
787.571586,0.190909,0.090110
787.605018,0.222727,0.185795
787.638449,0.165909,0.077298
787.671880,-0.054545,0.101436
787.705310,-0.072727,0.041161
787.738741,-0.075000,0.072469
787.772171,0.409091,0.232885
787.805600,-0.155303,0.037258
787.839030,0.093182,0.032201
787.872459,0.161364,0.017714
787.905888,0.343182,0.164215
787.939317,0.124242,0.018741
787.972745,0.204545,0.152035
788.006173,0.403788,0.098563
788.039601,0.084091,0.137246
788.073028,-0.050000,0.095427
788.106456,0.318182,0.183233
788.139883,-0.072727,0.076331
788.173309,0.368182,0.131012
788.206736,-0.118182,0.039886
788.240162,0.234091,0.123163
788.273588,0.070455,0.038081
788.307013,-0.027273,0.069976
788.340439,-0.075000,0.072469
788.373864,0.045455,0.022727
788.407288,0.090909,0.106600
788.440713,0.447727,0.157897
788.474137,-0.045455,0.039365
788.507561,0.440909,0.056909
788.540985,0.070455,0.020423
788.574408,0.528030,0.214297
788.607831,0.186364,0.032381
788.641254,0.186364,0.003936
788.674677,-0.027273,0.053203
788.708099,-0.354545,0.110689
788.741521,0.275000,0.083837
788.774943,0.022727,0.049533
788.808364,0.252273,0.232227
788.841785,0.279545,0.032679
788.875206,0.581818,0.182838
788.908627,-0.004545,0.093237
788.942047,0.136364,0.075378
788.975467,0.159091,0.067228
789.008887,-0.143182,0.071753
789.042306,-0.243182,0.131872
789.075726,0.143182,0.071753
789.109145,0.043182,0.104909
789.142563,0.306818,0.066988
789.175982,-0.234091,0.083095
789.209400,-0.143182,0.071753
789.242817,0.065909,0.051363
789.276235,0.522727,0.351171
789.309652,0.204545,0.152035
789.343069,-0.081818,0.186474
789.376486,0.300000,0.072869
789.409902,0.136364,0.134456
789.443319,0.229545,0.103422
789.476735,0.315909,0.200603
789.510150,-0.062121,0.018603
789.543565,0.050000,0.077506
789.576980,-0.138636,0.075060
789.610395,-0.095455,0.086334
789.643810,0.113636,0.059047
789.677224,-0.259091,0.044710
789.710638,0.225000,0.178532
789.744052,0.279545,0.085242
789.777465,-0.186364,0.115954
789.810878,0.155303,0.098248
789.844291,0.545455,0.274615
789.877703,-0.070455,0.049832
789.911116,0.043182,0.069337
789.944528,0.159091,0.067228
789.977939,0.095455,0.097569
790.011351,0.065909,0.219301
790.044762,0.275000,0.053819
790.078173,0.156818,0.099864
790.111583,0.043182,0.052359
790.144994,0.063636,0.090568
790.178404,0.027273,0.069976
790.211813,-1.020455,0.099085
790.245223,-0.140909,0.025206
790.278632,0.161364,0.086863
790.312041,-0.027273,0.053203
790.345450,0.268182,0.272756
790.378858,0.140909,0.025206
790.412266,0.343182,0.271025
790.445674,-0.093182,0.064313
790.479081,0.197727,0.222643
790.512488,0.252273,0.140850
790.545895,0.002273,0.056625
790.579302,-0.050000,0.070528
790.612708,0.031061,0.018568
790.646115,0.329545,0.098248
790.679520,1.443182,0.376332
790.712926,0.634091,0.094823
790.746331,0.204545,0.081153
790.779736,-0.231818,0.074793
790.813141,-0.072727,0.061322
790.846545,0.156818,0.149565
790.879949,0.043182,0.076424
790.913353,0.340909,0.223549
790.946757,-0.113636,0.049533
790.980160,0.068182,0.037689
791.013563,0.300000,0.047019
791.046966,0.418182,0.074412
791.080368,0.165909,0.089672
791.113771,-0.052273,0.107967
791.147173,0.363636,0.289271
791.180574,0.115909,0.019117
791.213976,0.634091,0.214899
791.247377,0.200000,0.167751
791.280777,0.529545,0.118460
791.314178,0.284091,0.091440
791.347578,-0.100000,0.102952
791.380978,0.065909,0.104416
791.414378,0.070455,0.038081
791.447777,-0.325000,0.037809
791.481176,0.093182,0.064313
791.514575,0.434091,0.296334
791.547973,0.315909,0.208184
791.581372,0.225000,0.153653
791.614770,0.020455,0.050858
791.648167,0.113636,0.087286
791.681565,0.163636,0.021320
791.714962,0.217424,0.037397
791.748359,0.475000,0.200731
791.781755,-0.120455,0.055052
791.815152,0.211364,0.025587
791.848548,0.163636,0.050206
791.881943,0.043182,0.052359
791.915339,-0.209091,0.066959
791.948734,0.277273,0.070528
791.982129,0.177273,0.192351
792.015523,0.113636,0.074516
792.048918,0.000000,0.096424
792.082312,0.304545,0.042336
792.115705,0.138636,0.021651
792.149099,0.070455,0.020423
792.182492,0.115909,0.037397
792.215885,-0.234091,0.026577
792.249278,0.088636,0.073320
792.282670,0.209091,0.049167
792.316062,0.050000,0.070528
792.349454,-0.050000,0.077506
792.382845,-0.211364,0.061269
792.416236,0.159091,0.067228
792.449627,0.202273,0.109957
792.483018,0.559091,0.116487
792.516408,0.822727,0.256758
792.549798,0.528030,0.402027
792.583188,0.750000,0.180034
792.616578,0.588636,0.112051
792.649967,0.352273,0.120663
792.683356,0.675000,0.228143
792.716745,0.254545,0.086483
792.750133,0.018182,0.062984
792.783521,0.134091,0.105400
792.816909,0.254545,0.129526
792.850296,0.179545,0.125736
792.883684,0.256818,0.104069
792.917071,0.002273,0.072612
792.950457,0.161364,0.017714
792.983844,0.115909,0.129978
793.017230,0.372727,0.033091
793.050616,0.231818,0.074793
793.084001,0.115909,0.049311
793.117386,0.038636,0.099502
793.150771,0.040909,0.085129
793.184156,0.252273,0.121133
793.217541,0.411364,0.144291
793.250925,0.179545,0.117233
793.284309,0.155303,0.037258
793.317692,0.031061,0.074230
793.351075,0.310606,0.049533
793.384458,0.279545,0.064553
793.417841,0.000000,0.032141
793.451223,0.252273,0.193392
793.484606,0.390909,0.187248
793.517988,0.022727,0.074516
793.551369,0.184091,0.071175
793.584750,0.341667,0.049624
793.618131,0.234091,0.135160
793.651512,-0.002273,0.046619
793.684893,0.156818,0.191918
793.718273,0.184091,0.101149
793.751653,0.490909,0.582422
793.785032,0.084091,0.148107
793.818411,0.465909,0.140446
793.851790,-0.072727,0.076331
793.885169,0.031061,0.066910
793.918548,0.134091,0.258639
793.951926,0.215909,0.115188
793.985304,-0.047727,0.082282
794.018681,0.190909,0.100925
794.052059,0.186364,0.222716
794.085436,0.063636,0.143524
794.118812,0.159091,0.049533
794.152189,0.022727,0.019682
794.185565,0.186364,0.032381
794.218941,0.093182,0.055705
794.252317,0.186364,0.032381
794.285692,-0.047727,0.040064
794.319067,0.368182,0.104718
794.352442,0.577273,0.177607
794.385816,1.250000,0.434055
794.419190,3.413636,0.567559
794.452564,1.584091,0.351184
794.485938,0.528030,0.122195
794.519311,0.379545,0.125654
794.552684,0.341667,0.093064
794.586057,-0.004545,0.093237
794.619429,0.440909,0.116487
794.652802,0.062121,0.049114
794.686173,0.124242,0.037206
794.719545,-0.186364,0.055809
794.752916,-0.400000,0.118357
794.786287,0.409091,0.309124
794.819658,0.609091,0.055111
794.853029,0.093182,0.085060
794.886399,-0.093182,0.115904
794.919769,0.062121,0.018603
794.953138,0.275000,0.062686
794.986508,-0.093182,0.111358
795.019877,0.236364,0.057135
795.053245,0.031061,0.066910
795.086614,0.818182,0.523221
795.119982,0.272727,0.210764
795.153350,0.288636,0.227236
795.186718,0.070455,0.081335
795.220085,0.431818,0.180034
795.253452,0.368182,0.114158
795.286819,0.161364,0.066679
795.320185,-0.093182,0.055705
795.353551,0.325000,0.019911
795.386917,0.550000,0.425449
795.420283,0.040909,0.120326
795.453648,0.015909,0.137810
795.487013,-0.027273,0.069976
795.520378,0.090909,0.032141
795.553742,0.025000,0.038753
795.587107,-0.062121,0.049114
795.620471,-0.093182,0.128580
795.653834,0.209091,0.080930
795.687197,0.186364,0.055809
795.720560,0.002273,0.116348
795.753923,0.213636,0.133047
795.787286,0.597727,0.159038
795.820648,0.045455,0.099066
795.854010,-0.147727,0.164969
795.887371,0.186364,0.032381
795.920733,0.161364,0.086863
795.954094,-0.122727,0.152578
795.987454,0.536364,0.069383
796.020815,0.138636,0.098824
796.054175,0.343182,0.164215
796.087535,0.390909,0.128324
796.120894,1.168182,0.155262
796.154254,0.372727,0.167196
796.187613,0.475000,0.242669
796.220971,0.403788,0.130177
796.254330,1.861364,0.489089
796.287688,3.931818,0.730373
796.321046,6.243182,0.393430
796.354403,3.550000,0.711342
796.387761,1.801515,0.169269
796.421118,0.124242,0.049167
796.454474,0.111364,0.159427
796.487831,0.070455,0.020423
796.521187,0.070455,0.020423
796.554543,0.038636,0.099502
796.587898,0.186364,0.147342
796.621254,0.031061,0.066910
796.654609,-0.054545,0.208200
796.687963,0.315909,0.229430
796.721318,0.854545,0.621548
796.754672,-0.584091,0.064952
796.788026,0.136364,0.075378
796.821379,0.093182,0.128580
796.854732,0.184091,0.078096
796.888085,0.155303,0.049206
796.921438,0.284091,0.072541
796.954790,0.062121,0.018603
796.988142,0.297727,0.125119
797.021494,0.256818,0.050654
797.054846,-0.163636,0.067726
797.088197,0.097727,0.088804
797.121548,0.340909,0.152035
797.154899,0.254545,0.057854
797.188249,0.052273,0.107967
797.221599,0.275000,0.083837
797.254949,1.118182,0.411031
797.288298,0.181818,0.071870
797.321648,0.456818,0.159427
797.354996,-0.256818,0.039151
797.388345,0.084091,0.129501
797.421693,0.113636,0.087286
797.455041,0.365909,0.262505
797.488389,0.343182,0.195781
797.521737,0.045455,0.081944
797.555084,0.868182,0.263509
797.588431,-0.211364,0.088804
797.621777,-0.006818,0.163680
797.655124,0.063636,0.106309
797.688470,0.115909,0.019117
797.721815,0.606818,0.116037
797.755161,0.184091,0.084451
797.788506,0.300000,0.102348
797.821851,0.279545,0.111497
797.855196,0.070455,0.020423
797.888540,0.211364,0.114243
797.921884,0.093182,0.085060
797.955228,0.375000,0.134816
797.988571,0.320455,0.121346
798.021914,0.159091,0.049533
798.055257,-0.248485,0.067113
798.088599,0.575000,0.201835
798.121942,0.727273,0.224989
798.155284,1.668182,0.085854
798.188625,4.162121,0.966278
798.221967,6.934091,0.493296
798.255308,4.938636,0.688253
798.288649,1.863636,0.436577
798.321989,1.115909,0.177080
798.355329,0.320455,0.170844
798.388669,-0.011364,0.149357
798.422009,0.088636,0.092059
798.455348,0.062121,0.049114
798.488687,0.136364,0.104149
798.522026,0.222727,0.230466
798.555365,-0.093182,0.055705
798.588703,-0.113636,0.037689
798.622041,0.122727,0.126683
798.655378,0.440909,0.201069
798.688716,0.247727,0.131558
798.722053,0.672727,0.131583
798.755389,0.284091,0.065031
798.788726,0.411364,0.305179
798.822062,0.070455,0.049832
798.855398,0.275000,0.083837
798.888733,0.354545,0.156999
798.922069,0.372727,0.116154
798.955404,0.248485,0.103453
798.988738,0.506818,0.250586
799.022073,0.275000,0.095367
799.055407,0.613636,0.378086
799.088741,0.236364,0.097277
799.122074,0.159091,0.081153
799.155408,0.513636,0.031079
799.188741,0.540909,0.214204
799.222073,0.043182,0.041333
799.255406,0.575000,0.480437
799.288738,0.465909,0.116304
799.322069,0.720455,0.334074
799.355401,0.040909,0.096504
799.388732,0.025000,0.117892
799.422063,0.209091,0.037206
799.455394,0.350000,0.075617
799.488724,0.217424,0.074369
799.522054,0.052273,0.086744
799.555384,0.302273,0.103322
799.588713,0.143182,0.055519
799.622042,-0.309091,0.107373
799.655371,0.000000,0.032141
799.688700,-0.168182,0.241241
799.722028,0.500000,0.207055
799.755356,0.420455,0.100842
799.788684,0.293182,0.186872
799.822011,0.611364,0.494968
799.855338,0.420455,0.077698
799.888665,0.177273,0.192351
799.921992,0.284091,0.360202
799.955318,0.272727,0.096424
799.988644,0.434091,0.296334
800.021969,0.575000,0.081526
800.055295,3.531818,0.882764
800.088620,10.840152,0.434898
800.121945,18.077273,1.484331
800.155269,16.990152,1.312292
800.188593,7.152273,0.791310
800.221917,1.834091,0.895399
800.255241,0.062121,0.098202
800.288564,0.134091,0.083529
800.321887,0.190909,0.090110
800.355210,0.095455,0.133357
800.388532,0.186364,0.055809
800.421854,0.181818,0.064282
800.455176,-0.095455,0.097569
800.488498,0.000000,0.032141
800.521819,0.465909,0.222898
800.555140,0.240909,0.366656
800.588461,0.154545,0.151235
800.621781,0.290909,0.165270
800.655101,-0.238636,0.127936
800.688421,-0.143182,0.055519
800.721740,0.403788,0.103671
800.755060,0.403788,0.214177
800.788379,0.043182,0.052359
800.821697,0.275000,0.110426
800.855015,0.434848,0.130222
800.888334,0.177273,0.119464
800.921651,0.109091,0.215706
800.954969,-0.022727,0.121861
800.988286,-0.031061,0.018568
801.021603,0.018182,0.127920
801.054919,0.768182,0.067535
801.088235,0.163636,0.067726
801.121551,0.636364,0.248965
801.154867,0.236364,0.147850
801.188183,0.202273,0.149737
801.221498,0.388636,0.203415
801.254812,0.479545,0.136188
801.288127,0.159091,0.059047
801.321441,0.434848,0.148738
801.354755,0.681818,0.134456
801.388069,0.818182,0.132522
801.421382,-0.561364,0.119761
801.454695,0.000000,0.128565
801.488008,0.315909,0.205688
801.521320,0.248485,0.081057
801.554632,0.621212,0.162305
801.587944,0.775000,0.146776
801.621256,0.161364,0.017714
801.654567,0.090909,0.071870
801.687878,0.545455,0.350619
801.721189,0.061364,0.118242
801.754499,-0.004545,0.117722
801.787809,0.454545,0.233992
801.821119,0.956818,0.254411
801.854428,0.186364,0.055809
801.887737,0.161364,0.066679
801.921046,0.920455,0.344067
801.954355,2.681818,0.258132
801.987663,9.011364,0.831081
802.020971,20.397727,0.356961
802.054279,32.127273,0.496225
802.087586,18.884848,1.481065
802.120894,5.125000,0.445760
802.154200,1.590909,0.698656
802.187507,0.415909,0.091384
802.220813,0.363636,0.160706
802.254119,0.275000,0.083837
802.287425,0.252273,0.247307
802.320730,0.543182,0.177807
802.354035,0.152273,0.309682
802.387340,0.202273,0.156484
802.420644,-0.095455,0.057631
802.453949,0.186364,0.111410
802.487252,0.186364,0.115954
802.520556,0.236364,0.120947
802.553859,0.247727,0.205185
802.587162,1.038636,0.138557
802.620465,0.277273,0.131799
802.653767,0.034091,0.185596
802.687069,0.161364,0.141216
802.720371,0.736364,0.320543
802.753673,0.277273,0.083906
802.786974,0.179545,0.161679
802.820275,0.093182,0.055705
802.853576,0.915909,0.329246
802.886876,0.163636,0.067726
802.920176,0.331818,0.167428
802.953476,0.134091,0.131558
802.986775,0.629545,0.242093
803.020074,1.045455,0.177506
803.053373,0.436364,0.336855
803.086672,0.027273,0.062158
803.119970,0.155303,0.049206
803.153268,0.256818,0.039151
803.186565,0.295455,0.168166
803.219863,0.018182,0.153607
803.253160,0.279545,0.032679
803.286457,0.793182,0.329747
803.319753,0.225000,0.123874
803.353049,0.084091,0.216169
803.386345,0.563636,0.337161
803.419641,0.502273,0.240638
803.452936,1.354545,0.623457
803.486231,0.496970,0.134226
803.519525,0.197727,0.289242
803.552820,-0.168182,0.087049
803.586114,0.155303,0.151929
803.619408,0.495455,0.160110
803.652701,0.606818,0.160815
803.685994,0.393182,0.032679
803.719287,0.250000,0.121861
803.752580,0.488636,0.098248
803.785872,0.155303,0.049206
803.819164,0.568182,0.165066
803.852456,0.909091,0.147290
803.885747,4.615909,0.447564
803.919038,15.097727,0.339594
803.952329,41.811364,0.661308
803.985620,60.629545,2.085748
804.018910,25.133333,1.092379
804.052200,6.584848,1.714082
804.085489,1.553030,0.148599
804.118779,1.377273,0.531774
804.152068,0.502273,0.132731
804.185357,0.062121,0.037137
804.218645,0.279545,0.064553
804.251933,0.665909,0.234287
804.285221,1.147727,0.601173
804.318508,0.331818,0.102323
804.351796,0.715909,0.116304
804.385083,0.341667,0.067295
804.418369,0.184091,0.220123
804.451656,0.652273,0.086147
804.484942,-0.093182,0.055705
804.518227,0.445455,0.252385
804.551513,0.590909,0.223838
804.584798,0.427273,0.407497
804.618083,0.500000,0.336333
804.651367,0.497727,0.215978
804.684652,0.118182,0.039886
804.717936,-0.341667,0.037809
804.751219,0.454545,0.195507
804.784503,1.056061,0.226852
804.817786,0.481818,0.146375
804.851068,0.481818,0.363267
804.884351,0.625000,0.180660
804.917633,0.990909,0.328816
804.950915,0.621212,0.134456
804.984196,0.341667,0.074577
805.017478,0.217424,0.049311
805.050759,0.890909,0.357967
805.084039,0.088636,0.185206
805.117320,0.509091,0.172966
805.150600,1.054545,0.285605
805.183879,0.406818,0.234110
805.217159,-0.170455,0.102115
805.250438,0.790909,0.209140
805.283717,0.506818,0.268497
805.316995,1.175000,0.461127
805.350274,0.368182,0.199729
805.383552,0.509091,0.150619
805.416829,0.124242,0.188349
805.450107,0.502273,0.231893
805.483384,0.727273,0.340151
805.516660,1.036364,0.472771
805.549937,0.586364,0.236658
805.583213,0.825000,0.245273
805.616489,0.563636,0.327840
805.649764,0.572727,0.145667
805.683040,0.434848,0.098622
805.716315,0.159091,0.093015
805.749589,0.465909,0.085605
805.782864,1.561364,0.576918
805.816138,8.020455,0.856793
805.849411,38.890909,0.943245
805.882685,106.450000,2.032742
805.915958,133.762500,2.849483
805.949231,87.000758,5.077838
805.982504,19.484091,1.368753
806.015776,3.431818,0.288153
806.049048,0.586364,0.240555
806.082319,0.065909,0.068588
806.115591,0.227273,0.099066
806.148862,0.193182,0.156121
806.182133,0.062121,0.098202
806.215403,0.797727,0.328727
806.248673,0.354545,0.331320
806.281943,1.070455,0.445714
806.315213,0.988636,0.301672
806.348482,0.293182,0.285322
806.381751,0.352273,0.046508
806.415019,-0.136364,0.075378
806.448288,0.325000,0.049624
806.481556,0.372727,0.085401
806.514823,0.461364,0.158876
806.548091,0.136364,0.093707
806.581358,0.440909,0.116487
806.614625,0.236364,0.057135
806.647891,1.428788,0.275019
806.681158,0.834091,0.105547
806.714424,0.293182,0.153485
806.747689,0.502273,0.213331
806.780955,0.409091,0.232885
806.814220,0.568182,0.352639
806.847484,0.420455,0.115188
806.880749,1.393182,0.032679
806.914013,0.372727,0.096745
806.947277,0.347727,0.116703
806.980540,0.329545,0.148490
807.013803,0.341667,0.214128
807.047066,0.679545,0.193526
807.080329,0.403788,0.074715
807.113591,1.006818,0.128298
807.146853,0.845455,0.246756
807.180115,0.159091,0.093015
807.213376,0.593182,0.233889
807.246637,0.940909,0.326728
807.279898,0.615909,0.246470
807.313159,0.663636,0.348165
807.346419,0.561364,0.294901
807.379679,-0.186364,0.032381
807.412938,0.281818,0.165332
807.446198,1.093182,0.617332
807.479457,0.202273,0.159751
807.512715,1.050000,0.146639
807.545974,0.993939,0.242149
807.579232,0.479545,0.215499
807.612490,0.813636,0.425207
807.645747,0.621212,0.050820
807.679004,0.327273,0.135451
807.712261,0.869697,0.159610
807.745518,7.516667,0.770542
807.778774,36.718182,2.315475
807.812030,147.227273,4.614756
807.845285,253.225000,6.247847
807.878541,244.074242,6.878126
807.911796,64.248864,1.424780
807.945051,11.678788,0.999607
807.978305,2.143182,0.356440
808.011559,0.341667,0.130098
808.044813,0.270455,0.263879
808.078066,1.009091,0.395298
808.111320,0.217424,0.067065
808.144573,0.818182,0.184637
808.177825,0.625000,0.275729
808.211078,0.528030,0.113426
808.244330,0.600000,0.328659
808.277581,1.900000,0.213830
808.310833,0.931818,0.307239
808.344084,0.954545,0.186031
808.377335,0.761364,0.207911
808.410585,1.229545,0.337642
808.443835,1.186364,0.420319
808.477085,0.714394,0.177662
808.510335,0.161364,0.255727
808.543584,1.384091,0.252884
808.576833,0.718182,0.445199
808.610082,0.904545,0.259559
808.643330,-0.027273,0.194819
808.676578,1.708333,0.149357
808.709826,0.706818,0.319484
808.743073,0.775000,0.205185
808.776320,0.345455,0.164015
808.809567,0.629545,0.123373
808.842814,0.621212,0.122390
808.876060,0.776515,0.024766
808.909306,0.829545,0.259318
808.942552,0.859091,0.226396
808.975797,0.952273,0.258240
809.009042,1.015909,0.282740
809.042287,0.568182,0.472787
809.075531,0.227273,0.122390
809.108775,0.584091,0.225181
809.142019,0.936364,0.150550
809.175262,1.459848,0.148177
809.208506,1.134091,0.306193
809.241748,0.600000,0.094037
809.274991,1.020455,0.252065
809.308233,0.372727,0.170257
809.341475,1.236364,0.413062
809.374717,0.776515,0.165749
809.407958,1.054545,0.187304
809.441199,1.154545,0.451513
809.474440,0.115909,0.129978
809.507680,0.403788,0.134086
809.540921,0.613636,0.225848
809.574160,0.652273,0.223107
809.607400,0.281818,0.103951
809.640639,0.984091,0.291200
809.673878,2.559091,0.394349
809.707117,12.568182,1.662162
809.740355,53.728030,1.100651
809.773593,219.238636,3.401787
809.806831,402.390152,9.617281
809.840068,272.121970,8.695707
809.873305,66.372727,2.468031
809.906542,10.187879,1.134162
809.939778,1.929545,0.518763
809.973015,0.254545,0.318247
810.006250,1.409091,0.427007
810.039486,2.175000,0.855122
810.072721,1.411364,0.427797
810.105956,1.029545,0.256997
810.139191,0.807576,0.114158
810.172425,1.309091,0.335810
810.205659,1.490909,0.281965
810.238893,2.063636,0.830053
810.272126,1.981818,0.287192
810.305359,1.997727,0.278544
810.338592,1.613636,0.185683
810.371825,2.668182,0.556827
810.405057,2.709091,0.645423
810.438289,2.795455,0.232608
810.471520,2.104545,0.320664
810.504751,2.427273,0.490341
810.537982,2.468182,0.294114
810.571213,1.227273,0.358630
810.604443,1.863636,0.636769
810.637673,1.366667,0.387218
810.670903,1.568182,0.493108
810.704133,1.422727,0.581156
810.737362,0.909091,0.326198
810.770591,1.270455,0.361219
810.803819,0.670455,0.168070
810.837047,0.838636,0.179829
810.870275,0.606818,0.365526
810.903503,1.211364,0.212312
810.936730,0.279545,0.210847
810.969957,0.372727,0.111618
811.003184,0.665909,0.316772
811.036410,0.372727,0.096745
811.069636,0.861364,0.528675
811.102862,1.404545,0.297397
811.136087,1.140909,0.475011
811.169312,1.829545,0.618745
811.202537,0.875000,0.404448
811.235762,1.675000,0.778709
811.268986,1.409091,0.325405
811.302210,0.856818,0.298037
811.335433,0.759091,0.205138
811.368656,0.820455,0.211507
811.401879,2.102273,0.511837
811.435102,1.150000,0.834270
811.468324,2.143182,0.562227
811.501546,2.795455,0.284545
811.534768,0.693182,0.144970
811.567990,1.565909,0.476844
811.601211,1.122727,0.575978
811.634432,1.397727,0.317928
811.667652,9.100758,0.494916
811.700872,39.291667,1.705634
811.734092,141.861364,4.586795
811.767312,255.440909,2.158429
811.800531,186.767424,4.299169
811.833750,50.535606,2.604094
811.866969,7.718182,0.553968
811.900187,2.309091,0.396993
811.933405,0.031061,0.133816
811.966623,0.386364,0.251801
811.999840,1.045455,0.068182
812.033057,1.295455,0.451553
812.066274,1.393182,0.402387
812.099490,0.561364,0.409323
812.132707,1.311364,0.432635
812.165923,1.429545,0.392273
812.199138,1.363636,0.326198
812.232353,0.995455,0.255952
812.265568,2.188636,0.211580
812.298783,0.747727,0.307119
812.331997,2.115909,0.424281
812.365211,0.661364,0.246366
812.398425,2.500000,0.269871
812.431638,1.322727,0.378960
812.464851,1.543182,0.219418
812.498064,1.172727,0.376834
812.531277,0.341667,0.161935
812.564489,0.820455,0.346475
812.597701,0.869697,0.228768
812.630912,1.534091,0.306766
812.664123,1.672727,0.178261
