#{
#    "background_file": "Backgrounds\\\\bg_785.995nm_13bin_219st_244en_10.0s_110g_4x_13_seq.txt",
#    "ccd_image_settings": [
#        1,
#        13,
#        1,
#        1600,
#        219,
#        244
#    ],
#    "ccd_temperature": "-87",
#    "cdRatios": {
#        "mean": 0.9564686380878004,
#        "std": 0.011103671726466226
#    },
#    "center_lambda": 786.0,
#    "comments": "",
#    "dark_region": 28.940446563584604,
#    "date": "10/22/20 16:55:09PM",
#    "eff_field": 1.5,
#    "exposure": 10.0,
#    "fel_lambda": "15.0",
#    "fel_pol": "H",
#    "fel_pulses": 43,
#    "fel_pyro_cal": "0.012",
#    "fel_reprate": "1.07",
#    "fel_transmission": "1.0",
#    "fel_transmission_fits": {
#        "A": 1.0,
#        "C": 0.0,
#        "Mu": 0.0
#    },
#    "fieldInt": {
#        "mean": 4913.638215909091,
#        "std": 787.3148585331203
#    },
#    "fieldStrength": {
#        "mean": 31.90474810606061,
#        "std": 3.1130164367616993
#    },
#    "fpTime": {
#        "mean": 0.9647452372648958,
#        "std": 0.09882318641354403
#    },
#    "gain": 110,
#    "grating": 3,
#    "images_in_sequence": [
#        "hsg_820nm_c123_am45_HAna417.txt",
#        "hsg_820nm_c123_am45_HAna418.txt",
#        "hsg_820nm_c123_am45_HAna419.txt",
#        "hsg_820nm_c123_am45_HAna420.txt"
#    ],
#    "nir_lambda": "819.98",
#    "nir_pola": "-45",
#    "nir_polg": "0",
#    "nir_power": "100.0",
#    "pulseEnergies": {
#        "mean": 1.4864753787878788,
#        "std": 0.2482303949091585
#    },
#    "pyroVoltage": {
#        "mean": 0.12977711190768276,
#        "std": 0.02261295778627196
#    },
#    "rotatorAngle": 112.49999633788168,
#    "sample_Temp": "55",
#    "sample_name": "L001218.C1",
#    "series": "820_Fan",
#    "slits": "60",
#    "spec_step": "",
#    "window_trans": 0.92,
#    "y_max": 2,
#    "y_min": 1
#}
#
#
#
#
#
#
#
#
#
#
#
#
#
#
#
#
#
#
#
#
#
#
#
#
#
#
Wavelength,Signal,error
nm,arb. u.,arb.u.
Wavelength,820_Fan,error
759.194366,0.068182,0.087286
759.228015,0.217424,0.133893
759.261663,0.261364,0.118504
759.295311,0.204545,0.188445
759.328959,0.211364,0.041082
759.362607,0.186364,0.085129
759.396254,0.159091,0.165066
759.429901,0.038636,0.134778
759.463548,0.322727,0.173726
759.497194,-0.143182,0.071753
759.530841,0.320455,0.112511
759.564487,-0.062121,0.037137
759.598133,0.131818,0.102726
759.631779,0.109091,0.231863
759.665424,0.109091,0.136515
759.699069,-0.088636,0.073320
759.732714,0.425000,0.108682
759.766359,0.528030,0.130375
759.800003,0.436364,0.175575
759.833648,-0.093182,0.055705
759.867292,-0.068182,0.037689
759.900935,0.429545,0.233889
759.934579,0.252273,0.140850
759.968222,0.179545,0.103172
760.001865,0.204545,0.130063
760.035508,0.247727,0.153316
760.069151,0.115909,0.067065
760.102793,0.209091,0.080930
760.136435,-0.004545,0.087522
760.170077,0.302273,0.080890
760.203718,0.243182,0.225295
760.237360,-0.559091,0.011809
760.271001,-0.045455,0.081944
760.304642,0.161364,0.117233
760.338283,-0.140909,0.025206
760.371923,0.320455,0.164686
760.405563,0.124242,0.049167
760.439203,0.213636,0.072834
760.472843,0.375000,0.109440
760.506482,0.184091,0.101149
760.540122,0.093182,0.032201
760.573761,0.784091,0.272431
760.607399,0.304545,0.131485
760.641038,0.593182,0.280115
760.674676,0.306818,0.185596
760.708314,0.279545,0.140225
760.741952,0.062121,0.164941
760.775589,-0.047727,0.040064
760.809227,0.020455,0.075404
760.842864,0.052273,0.073881
760.876501,-0.120455,0.139856
760.910137,0.297727,0.129181
760.943774,0.118182,0.060473
760.977410,0.402273,0.185986
761.011046,0.070455,0.020423
761.044681,0.352273,0.128941
761.078317,0.531818,0.110104
761.111952,0.088636,0.065899
761.145587,-0.155303,0.018844
761.179221,-0.155303,0.049206
761.212856,-0.528030,0.050347
761.246490,0.388636,0.132731
761.280124,0.195455,0.199522
761.313758,0.434091,0.431224
761.347391,0.590909,0.162305
761.381024,0.177273,0.195018
761.414657,0.563636,0.355070
761.448290,0.254545,0.112448
761.481923,0.140909,0.040846
761.515555,0.347727,0.147933
761.549187,-0.063636,0.111062
761.582819,0.015909,0.113107
761.616450,-0.238636,0.127936
761.650082,-0.031061,0.112878
761.683713,0.409091,0.355738
761.717344,-0.248485,0.019285
761.750974,-0.310606,0.049533
761.784605,-0.372727,0.056224
761.818235,0.256818,0.098981
761.851865,0.115909,0.158615
761.885494,-0.403788,0.020423
761.919124,0.590909,0.512751
761.952753,-0.090909,0.055670
761.986382,0.236364,0.057135
762.020010,0.002273,0.046619
762.053639,-0.040909,0.096504
762.087267,0.350000,0.023509
762.120895,0.238636,0.110613
762.154523,-0.018182,0.105822
762.188150,0.115909,0.243413
762.221777,-0.072727,0.076331
762.255404,0.027273,0.062158
762.289031,0.000000,0.032141
762.322658,0.140909,0.076162
762.356284,-0.075000,0.085545
762.389910,0.250000,0.239177
762.423536,0.138636,0.050347
762.457161,0.227273,0.204545
762.490786,0.155303,0.066988
762.524411,-0.072727,0.052223
762.558036,-0.217424,0.037397
762.591661,0.184091,0.189888
762.625285,-0.261364,0.207289
762.658909,0.020455,0.134471
762.692533,0.063636,0.120003
762.726157,0.311364,0.203745
762.759780,0.068182,0.141476
762.793403,0.229545,0.067065
762.827026,0.090909,0.106600
762.860649,0.413636,0.280228
762.894271,-0.124242,0.092821
762.927893,0.252273,0.107583
762.961515,0.904545,0.439777
762.995137,0.070455,0.020423
763.028758,0.031061,0.080890
763.062379,-0.047727,0.094003
763.096000,0.020455,0.039414
763.129621,0.118182,0.088257
763.163241,-0.002273,0.033767
763.196862,0.163636,0.038569
763.230481,0.484091,0.202601
763.264101,0.310606,0.214107
763.297721,0.050000,0.153523
763.331340,0.325000,0.214128
763.364959,0.718182,0.081692
763.398578,-0.331818,0.091673
763.432196,0.000000,0.128565
763.465814,0.513636,0.465698
763.499432,0.677273,0.092123
763.533050,0.302273,0.018568
763.566668,0.062121,0.049114
763.600285,-0.229545,0.074369
763.633902,0.188636,0.049101
763.667519,0.436364,0.205402
763.701135,-0.161364,0.058421
763.734752,0.384091,0.264856
763.768368,0.279545,0.055982
763.801984,0.027273,0.069976
763.835599,0.227273,0.145526
763.869215,0.134091,0.077097
763.902830,-0.065909,0.051363
763.936444,0.068182,0.087286
763.970059,0.000000,0.085038
764.003673,0.113636,0.059047
764.037288,0.136364,0.075378
764.070901,-0.393182,0.101811
764.104515,0.145455,0.219315
764.138128,0.031061,0.049101
764.171742,0.022727,0.067228
764.205354,0.070455,0.067449
764.238967,-0.186364,0.064403
764.272580,-0.093182,0.032201
764.306192,0.211364,0.088804
764.339804,0.140909,0.051975
764.373415,-0.093182,0.001968
764.407027,0.161364,0.141216
764.440638,0.161364,0.117233
764.474249,0.254545,0.140982
764.507860,-0.155303,0.092842
764.541470,0.300000,0.085884
764.575080,0.256818,0.093617
764.608690,-0.124242,0.049167
764.642300,-0.093182,0.085060
764.675909,-0.097727,0.088804
764.709519,0.500000,0.288377
764.743128,0.459091,0.223641
764.776736,0.168182,0.074239
764.810345,0.613636,0.354101
764.843953,-0.136364,0.068182
764.877561,0.225000,0.250730
764.911169,0.029545,0.086446
764.944776,0.479545,0.136188
764.978384,0.227273,0.171587
765.011991,-0.093182,0.032201
765.045598,0.238636,0.077698
765.079204,0.124242,0.018741
765.112810,0.068182,0.037689
765.146416,0.002273,0.056625
765.180022,0.331818,0.102323
765.213628,-0.113636,0.049533
765.247233,-0.159091,0.049533
765.280838,0.413636,0.163936
765.314443,0.131818,0.137176
765.348048,0.136364,0.122390
765.381652,0.118182,0.171708
765.415256,0.363636,0.124482
765.448860,0.118182,0.118269
765.482463,0.109091,0.283936
765.516067,0.234091,0.100019
765.549670,0.025000,0.038753
765.583273,0.436364,0.195084
765.616875,0.579545,0.262780
765.650478,-0.075000,0.091384
765.684080,0.279545,0.147408
765.717682,0.088636,0.133313
765.751283,0.518182,0.325786
765.784885,-0.156818,0.099864
765.818486,0.309091,0.097277
765.852087,0.320455,0.158289
765.885687,0.245455,0.204141
765.919288,-0.045455,0.022727
765.952888,0.434091,0.349149
765.986488,0.395455,0.098202
766.020087,0.163636,0.261985
766.053687,0.155303,0.066988
766.087286,0.134091,0.100380
766.120885,0.088636,0.211263
766.154484,0.248485,0.067113
766.188082,0.072727,0.061322
766.221680,0.022727,0.074516
766.255278,0.047727,0.134663
766.288876,0.188636,0.087041
766.322473,0.318182,0.277422
766.356070,0.438636,0.163522
766.389667,0.277273,0.135661
766.423264,-0.047727,0.149219
766.456860,0.231818,0.038233
766.490457,0.261364,0.088571
766.524053,0.465909,0.310115
766.557648,0.062121,0.049114
766.591244,0.279545,0.147408
766.624839,-0.279545,0.032679
766.658434,0.293182,0.131754
766.692029,0.050000,0.053926
766.725623,0.163636,0.038569
766.759217,-0.027273,0.062158
766.792811,-0.229545,0.092897
766.826405,0.043182,0.254411
766.859999,0.327273,0.053397
766.893592,0.422727,0.216888
766.927185,0.236364,0.073011
766.960777,-0.434848,0.049948
766.994370,0.088636,0.057530
767.027962,-0.070455,0.049832
767.061554,-0.000000,0.085038
767.095146,0.300000,0.208646
767.128737,-0.136364,0.050820
767.162329,-0.231818,0.020706
767.195920,0.070455,0.038081
767.229510,0.529545,0.275710
767.263101,-0.045455,0.050820
767.296691,0.020455,0.104168
767.330281,-0.206818,0.035989
767.363871,-0.297727,0.065506
767.397460,0.188636,0.037119
767.431050,0.411364,0.176495
767.464639,0.434848,0.206843
767.498227,0.256818,0.098981
767.531816,0.075000,0.085545
767.565404,-0.045455,0.214409
767.598992,0.002273,0.033767
767.632580,0.031061,0.103322
767.666168,0.095455,0.035428
767.699755,0.779545,0.378781
767.733342,0.297727,0.065506
767.766929,0.161364,0.117233
767.800515,0.229545,0.225799
767.834101,-0.043182,0.052359
767.867687,0.161364,0.036699
767.901273,-0.093182,0.064313
767.934859,-0.309091,0.157983
767.968444,0.179545,0.141216
768.002029,0.256818,0.068059
768.035614,0.118182,0.068484
768.069198,-0.050000,0.043301
768.102783,-0.495455,0.175501
768.136367,0.168182,0.066920
768.169950,0.138636,0.237179
768.203534,0.090909,0.055670
768.237117,0.231818,0.049948
768.270700,0.438636,0.044114
768.304283,0.904545,0.261541
768.337866,-0.031061,0.080890
768.371448,0.343182,0.096978
768.405030,0.154545,0.247174
768.438612,0.090909,0.132522
768.472193,0.215909,0.090017
768.505775,0.331818,0.111965
768.539356,0.436364,0.160191
768.572936,0.027273,0.069976
768.606517,-0.018182,0.181363
768.640097,0.300000,0.079643
768.673677,-0.047727,0.051363
768.707257,0.122727,0.130697
768.740836,0.256818,0.022355
768.774416,0.320455,0.102921
768.807995,0.318182,0.177506
768.841574,0.506818,0.175409
768.875152,0.345455,0.192954
768.908730,-0.020455,0.060163
768.942308,0.043182,0.052359
768.975886,0.248485,0.161859
769.009464,0.506818,0.119329
769.043041,0.318182,0.305764
769.076618,0.234091,0.069560
769.110195,0.352273,0.056533
769.143771,0.279545,0.111497
769.177348,0.204545,0.087286
769.210924,-0.134091,0.070078
769.244499,0.155303,0.066988
769.278075,0.304545,0.252539
769.311650,0.155303,0.092842
769.345225,0.456818,0.109487
769.378800,0.188636,0.037119
769.412375,0.213636,0.065358
769.445949,0.088636,0.185206
769.479523,0.159091,0.137777
769.513097,-0.068182,0.098412
769.546670,0.043182,0.069337
769.580243,-0.045455,0.050820
769.613816,0.097727,0.076289
769.647389,-0.156818,0.082908
769.680962,0.188636,0.080890
769.714534,-0.111364,0.068963
769.748106,0.000000,0.032141
769.781678,0.068182,0.037689
769.815249,-0.025000,0.038753
769.848820,-0.325000,0.049624
769.882391,0.618182,0.313998
769.915962,0.118182,0.068484
769.949533,-0.018182,0.070711
769.983103,0.159091,0.093015
770.016673,-0.093182,0.055705
770.050243,0.211364,0.114243
770.083812,-0.217424,0.074369
770.117381,0.031061,0.080890
770.150950,0.168182,0.074239
770.184519,-0.186364,0.032381
770.218088,-0.118182,0.023619
770.251656,-0.248485,0.019285
770.285224,0.134091,0.146423
770.318791,0.204545,0.126029
770.352359,0.395455,0.080898
770.385926,0.350000,0.099248
770.419493,0.186364,0.085129
770.453060,-0.370455,0.027532
770.486626,0.070455,0.049832
770.520192,-0.031061,0.018568
770.553758,0.122727,0.155926
770.587324,-0.052273,0.086744
770.620890,-0.025000,0.059732
770.654455,0.570455,0.412678
770.688020,0.413636,0.198171
770.721584,0.163636,0.067726
770.755149,0.115909,0.074369
770.788713,0.217424,0.098300
770.822277,0.070455,0.049832
770.855841,-0.195455,0.202094
770.889404,0.140909,0.040846
770.922967,0.043182,0.123037
770.956530,0.161364,0.017714
770.990093,0.031061,0.049101
771.023655,-0.062121,0.018603
771.057217,0.234091,0.041706
771.090779,0.072727,0.041161
771.124341,-0.372727,0.033091
771.157902,0.022727,0.130063
771.191463,0.043182,0.069337
771.225024,0.893182,0.473888
771.258585,-0.068182,0.037689
771.292145,0.124242,0.049167
771.325705,0.065909,0.113880
771.359265,0.179545,0.196308
771.392825,0.140909,0.025206
771.426384,0.140909,0.040846
771.459943,-0.093182,0.032201
771.493502,0.113636,0.103528
771.527061,0.138636,0.021651
771.560619,-0.234091,0.069560
771.594177,0.086364,0.118596
771.627735,0.347727,0.170632
771.661293,0.395455,0.112884
771.694850,-0.279545,0.055982
771.728407,0.138636,0.081652
771.761964,0.075000,0.072469
771.795521,0.138636,0.081652
771.829077,0.093182,0.055705
771.862633,0.163636,0.093376
771.896189,-0.111364,0.088629
771.929744,0.088636,0.057530
771.963300,0.461364,0.137997
771.996855,0.186364,0.111410
772.030409,0.000000,0.055670
772.063964,0.163636,0.021320
772.097518,0.427273,0.290234
772.131072,-0.215909,0.115188
772.164626,0.095455,0.073399
772.198180,0.047727,0.040064
772.231733,0.188636,0.117365
772.265286,-0.043182,0.069337
772.298839,-0.124242,0.049167
772.332391,0.654545,0.187524
772.365943,0.259091,0.078302
772.399495,0.143182,0.071753
772.433047,-0.093182,0.032201
772.466598,0.156818,0.177953
772.500150,0.000000,0.032141
772.533701,0.211364,0.069188
772.567251,-0.050000,0.135661
772.600802,0.229545,0.074369
772.634352,0.279545,0.167115
772.667902,0.140909,0.104718
772.701452,-0.229545,0.067065
772.735001,0.020455,0.039414
772.768550,0.502273,0.198272
772.802099,-0.211364,0.041082
772.835648,0.093182,0.055705
772.869196,-0.062121,0.049114
772.902744,0.275000,0.272355
772.936292,0.322727,0.133357
772.969840,0.161364,0.058421
773.003387,0.124242,0.018741
773.036934,0.217424,0.049311
773.070481,0.347727,0.170632
773.104028,0.295455,0.113067
773.137574,0.052273,0.073881
773.171120,0.109091,0.259210
773.204666,0.143182,0.045270
773.238212,-0.140909,0.051975
773.271757,0.000000,0.064282
773.305302,0.065909,0.068588
773.338847,0.090909,0.055670
773.372391,0.145455,0.075788
773.405936,-0.004545,0.067535
773.439480,0.256818,0.068059
773.473024,0.000000,0.032141
773.506567,0.470455,0.068813
773.540110,0.093182,0.064313
773.573653,-0.124242,0.018741
773.607196,0.310606,0.067228
773.640739,0.181818,0.090909
773.674281,-0.434848,0.049948
773.707823,0.070455,0.049832
773.741365,0.165909,0.042927
773.774906,0.227273,0.138245
773.808447,0.204545,0.113067
773.841988,0.236364,0.107373
773.875529,-0.018182,0.070711
773.909070,-0.193182,0.122785
773.942610,-0.018182,0.089995
773.976150,-0.031061,0.037119
774.009689,0.225000,0.200345
774.043229,-0.345455,0.078992
774.076768,0.163636,0.067726
774.110307,-0.115909,0.112970
774.143845,0.155303,0.098248
774.177384,-0.063636,0.101334
774.210922,-0.095455,0.057631
774.244460,0.320455,0.257639
774.277997,0.065909,0.051363
774.311535,0.095455,0.073399
774.345072,0.093182,0.055705
774.378609,-0.209091,0.018741
774.412145,0.063636,0.143524
774.445682,-0.065909,0.060591
774.479218,-0.022727,0.067228
774.512754,0.113636,0.037689
774.546289,-0.075000,0.085545
774.579824,-0.075000,0.132848
774.613359,0.361364,0.202014
774.646894,0.461364,0.320501
774.680429,-0.062121,0.080898
774.713963,0.304545,0.062117
774.747497,0.120455,0.055052
774.781031,0.065909,0.060591
774.814564,-0.209091,0.049167
774.848097,0.206818,0.161520
774.881630,0.956818,0.619545
774.915163,-0.047727,0.068588
774.948696,0.181818,0.190150
774.982228,0.370455,0.105302
775.015760,0.129545,0.306412
775.049291,0.000000,0.032141
775.082823,-0.138636,0.081652
775.116354,-0.018182,0.070711
775.149885,0.159091,0.165066
775.183416,-0.193182,0.109440
775.216946,-0.275000,0.070445
775.250476,0.070455,0.049832
775.284006,-0.045455,0.039365
775.317535,-0.256818,0.039151
775.351065,-0.111364,0.088629
775.384594,-0.217424,0.019117
775.418123,0.138636,0.021651
775.451651,0.136364,0.122390
775.485180,-0.295455,0.117546
775.518708,0.452273,0.526767
775.552235,-0.002273,0.033767
775.585763,0.318182,0.355738
775.619290,0.300000,0.056954
775.652817,0.047727,0.040064
775.686344,-0.040909,0.085129
775.719870,0.209091,0.112907
775.753397,0.095455,0.073399
775.786923,0.179545,0.161679
775.820448,-0.102273,0.116304
775.853974,0.306818,0.112924
775.887499,0.190909,0.119659
775.921024,0.122727,0.104323
775.954549,-0.147727,0.108253
775.988073,-0.143182,0.055519
776.021597,0.465909,0.085605
776.055121,-0.115909,0.049311
776.088645,0.136364,0.068182
776.122168,-0.254545,0.116952
776.155691,0.093182,0.001968
776.189214,0.100000,0.121373
776.222737,-0.022727,0.049533
776.256259,-0.113636,0.049533
776.289781,0.418182,0.049376
776.323303,0.090909,0.032141
776.356824,-0.045455,0.022727
776.390346,0.145455,0.088374
776.423867,0.072727,0.061322
776.457387,-0.445455,0.058032
776.490908,0.234091,0.026577
776.524428,0.186364,0.064403
776.557948,0.106818,0.264426
776.591468,0.068182,0.037689
776.624987,0.254545,0.086483
776.658506,-0.062121,0.018603
776.692025,-0.090909,0.032141
776.725544,0.304545,0.181064
776.759062,-0.000000,0.085038
776.792581,-0.155303,0.037258
776.826099,0.331818,0.144224
776.859616,0.259091,0.090539
776.893134,0.163636,0.067726
776.926651,0.238636,0.077698
776.960167,-0.095455,0.080128
776.993684,0.254545,0.015746
777.027200,0.256818,0.022355
777.060716,0.436364,0.217613
777.094232,0.443182,0.076018
777.127748,0.634091,0.244154
777.161263,0.277273,0.189647
777.194778,0.093182,0.032201
777.228293,0.188636,0.058685
777.261807,0.250000,0.133975
777.295322,0.234091,0.026577
777.328836,-0.040909,0.163936
777.362349,0.155303,0.182792
777.395863,0.093182,0.032201
777.429376,-0.124242,0.049167
777.462889,0.120455,0.106279
777.496401,0.640909,0.526189
777.529914,0.375000,0.126922
777.563426,0.050000,0.043301
777.596938,0.584091,0.120621
777.630449,0.155303,0.148490
777.663961,0.025000,0.038753
777.697472,-0.068182,0.037689
777.730983,-0.047727,0.068588
777.764493,-0.254545,0.057854
777.798004,0.231818,0.081407
777.831514,-0.115909,0.037397
777.865023,0.124242,0.018741
777.898533,0.165909,0.105547
777.932042,0.093182,0.055705
777.965551,0.088636,0.092059
777.999060,-0.029545,0.271272
778.032568,-0.022727,0.019682
778.066076,0.238636,0.090017
778.099584,-0.022727,0.049533
778.133092,0.259091,0.192673
778.166599,0.279545,0.055982
778.200107,0.062121,0.018603
778.233613,0.047727,0.040064
778.267120,0.020455,0.126555
778.300626,0.341667,0.019911
778.334132,-0.236364,0.057135
778.367638,0.225000,0.153653
778.401144,-0.093182,0.032201
778.434649,-0.124242,0.037206
778.468154,0.459091,0.134129
778.501659,0.502273,0.259238
778.535163,0.047727,0.023918
778.568668,0.254545,0.015746
778.602172,0.029545,0.102821
778.635675,-0.261364,0.076018
778.669179,0.093182,0.055705
778.702682,0.395455,0.296911
778.736185,0.372727,0.064763
778.769688,0.284091,0.096925
778.803190,0.065909,0.088337
778.836692,0.140909,0.025206
778.870194,0.440909,0.306835
778.903696,0.093182,0.115904
778.937197,0.456818,0.142309
778.970698,0.138636,0.021651
779.004199,0.020455,0.060163
779.037699,0.050000,0.077506
779.071200,0.165909,0.053626
779.104700,0.093182,0.055705
779.138199,0.356818,0.127895
779.171699,-0.022727,0.049533
779.205198,0.565909,0.305094
779.238697,0.181818,0.115887
779.272196,0.345455,0.128725
779.305694,0.000000,0.032141
779.339192,0.045455,0.068182
779.372690,0.502273,0.308378
779.406188,0.138636,0.067831
779.439685,-0.248485,0.049376
779.473182,-0.088636,0.073320
779.506679,0.506818,0.357597
779.540176,0.179545,0.239023
779.573672,-0.528030,0.021651
779.607168,0.345455,0.078992
779.640664,0.184091,0.150426
779.674160,0.318182,0.226134
779.707655,0.029545,0.086446
779.741150,0.145455,0.075788
779.774644,0.236364,0.097277
779.808139,0.231818,0.049948
779.841633,0.163636,0.021320
779.875127,0.295455,0.117546
779.908621,0.688636,0.365314
779.942114,-0.341667,0.019911
779.975607,0.234091,0.052654
780.009100,-0.215909,0.095583
780.042593,0.500000,0.407193
780.076085,-0.075000,0.132848
780.109577,0.072727,0.061322
780.143069,0.213636,0.056909
780.176560,0.097727,0.069188
780.210052,0.343182,0.107102
780.243543,0.045455,0.050820
780.277033,0.211364,0.069188
780.310524,-0.186364,0.032381
780.344014,0.090909,0.071870
780.377504,0.179545,0.141216
780.410994,0.004545,0.074793
780.444483,0.118182,0.068484
780.477972,0.165909,0.062521
780.511461,0.343182,0.190432
780.544950,-0.161364,0.036699
780.578438,0.140909,0.051975
780.611926,0.248485,0.067113
780.645414,0.047727,0.051363
780.678902,0.229545,0.121771
780.712389,0.088636,0.073320
780.745876,0.209091,0.018741
780.779363,0.277273,0.244390
780.812849,0.111364,0.088629
780.846335,-0.095455,0.035428
780.879821,0.275000,0.143033
780.913307,0.413636,0.222716
780.946792,0.186364,0.055809
780.980277,0.025000,0.038753
781.013762,0.052273,0.073881
781.047247,0.131818,0.097569
781.080731,0.202273,0.131362
781.114215,0.165909,0.053626
781.147699,0.340909,0.113067
781.181183,0.181818,0.096424
781.214666,0.025000,0.067831
781.248149,0.217424,0.081017
781.281632,0.088636,0.073320
781.315114,0.047727,0.023918
781.348596,0.248485,0.049376
781.382078,0.350000,0.039821
781.415560,-0.155303,0.018844
781.449041,-0.054545,0.128404
781.482522,0.136364,0.093707
781.516003,0.093182,0.032201
781.549484,0.113636,0.049533
781.582964,0.161364,0.036699
781.616444,0.090909,0.055670
781.649924,0.177273,0.119464
781.683404,0.479545,0.181687
781.716883,-0.161364,0.036699
781.750362,0.140909,0.082666
781.783841,0.236364,0.057135
781.817319,0.217424,0.103422
781.850797,0.684091,0.486230
781.884275,0.022727,0.049533
781.917753,0.370455,0.100277
781.951230,0.227273,0.252058
781.984707,0.062121,0.018603
782.018184,0.070455,0.038081
782.051661,-0.047727,0.023918
782.085137,-0.093182,0.064313
782.118613,0.093182,0.055705
782.152089,0.411364,0.223037
782.185564,0.261364,0.109440
782.219040,0.027273,0.053203
782.252515,0.256818,0.068059
782.285989,0.256818,0.022355
782.319464,-0.088636,0.107583
782.352938,-0.045455,0.039365
782.386412,0.248485,0.067113
782.419885,-0.259091,0.106285
782.453359,-0.231818,0.103727
782.486832,0.111364,0.088629
782.520305,0.052273,0.086744
782.553777,0.309091,0.133144
782.587249,-0.372727,0.033091
782.620721,-0.675000,0.037809
782.654193,0.304545,0.149845
782.687665,0.217424,0.049311
782.721136,0.068182,0.037689
782.754607,0.181818,0.132522
782.788077,-0.155303,0.037258
782.821548,0.186364,0.032381
782.855018,-0.302273,0.018568
782.888488,0.320455,0.176788
782.921957,0.259091,0.063758
782.955427,-0.018182,0.131897
782.988896,-0.086364,0.099664
783.022365,0.093182,0.064313
783.055833,-0.090909,0.055670
783.089301,0.341667,0.145112
783.122769,-0.161364,0.086863
783.156237,0.436364,0.296048
783.189704,-0.045455,0.022727
783.223172,0.070455,0.038081
783.256638,-0.095455,0.035428
783.290105,0.356818,0.143141
783.323571,0.431818,0.373966
783.357037,0.597727,0.159038
783.390503,0.134091,0.077097
783.423969,0.031061,0.103322
783.457434,0.213636,0.072834
783.490899,0.095455,0.057631
783.524364,-0.217424,0.049311
783.557828,0.163636,0.021320
783.591292,0.111364,0.159427
783.624756,0.300000,0.056954
783.658220,0.347727,0.195992
783.691683,-0.138636,0.050347
783.725146,0.000000,0.064282
783.758609,0.031061,0.037119
783.792072,0.047727,0.051363
783.825534,0.045455,0.022727
783.858996,0.113636,0.087286
783.892458,0.168182,0.087049
783.925919,-0.025000,0.087751
783.959381,0.050000,0.070528
783.992842,-0.217424,0.098300
784.026302,0.256818,0.039151
784.059763,0.109091,0.116065
784.093223,0.093182,0.085060
784.126683,0.302273,0.049101
784.160142,0.229545,0.037397
784.193601,0.022727,0.037689
784.227060,0.002273,0.056625
784.260519,0.138636,0.075060
784.293978,0.411364,0.329591
784.327436,0.138636,0.067831
784.360894,0.190909,0.063147
784.394352,-0.043182,0.104909
784.427809,0.020455,0.165469
784.461266,0.259091,0.063758
784.494723,0.088636,0.086266
784.528180,-0.047727,0.099346
784.561636,0.229545,0.074369
784.595092,0.350000,0.023509
784.628548,0.281818,0.152324
784.662003,0.211364,0.118678
784.695458,0.528030,0.177371
784.728913,0.275000,0.131754
784.762368,0.004545,0.117722
784.795823,0.209091,0.049167
784.829277,0.275000,0.139375
784.862731,0.365909,0.214899
784.896184,0.006818,0.101302
784.929637,-0.279545,0.064553
784.963091,0.000000,0.000000
784.996543,0.136364,0.075378
785.029996,0.070455,0.020423
785.063448,0.120455,0.084634
785.096900,0.322727,0.170727
785.130352,0.310606,0.214107
785.163803,-0.022727,0.098412
785.197254,0.097727,0.142418
785.230705,-0.138636,0.021651
785.264156,0.306818,0.185596
785.297606,0.002273,0.096978
785.331056,0.075000,0.072469
785.364506,0.297727,0.151282
785.397955,0.040909,0.229568
785.431405,-0.045455,0.050820
785.464854,-0.325000,0.049624
785.498302,-0.022727,0.067228
785.531751,0.020455,0.088044
785.565199,0.093182,0.085060
785.598647,-0.088636,0.065899
785.632094,-0.125000,0.182792
785.665542,0.302273,0.103322
785.698989,0.095455,0.047835
785.732436,-0.093182,0.032201
785.765882,-0.140909,0.082666
785.799328,0.522727,0.201685
785.832774,0.184091,0.044347
785.866220,0.234091,0.076627
785.899665,-0.002273,0.161039
785.933111,0.063636,0.084672
785.966555,-0.195455,0.221600
786.000000,0.418182,0.098333
786.033444,0.318182,0.152459
786.066888,0.093182,0.064313
786.100332,0.247727,0.178243
786.133776,0.217424,0.081017
786.167219,-0.022727,0.049533
786.200662,0.186364,0.055809
786.234104,0.250000,0.216506
786.267547,-0.031061,0.018568
786.300989,0.134091,0.100380
786.334431,0.572727,0.333309
786.367872,0.211364,0.061269
786.401314,-0.002273,0.056625
786.434755,0.000000,0.055670
786.468196,0.422727,0.138375
786.501636,0.115909,0.019117
786.535076,0.115909,0.196440
786.568516,0.279545,0.085242
786.601956,0.181818,0.111340
786.635395,0.093182,0.055705
786.668834,0.270455,0.216575
786.702273,-0.109091,0.116065
786.735712,0.118182,0.039886
786.769150,-0.120455,0.084634
786.802588,-0.231818,0.049948
786.836026,0.027273,0.083443
786.869463,0.395455,0.103328
786.902900,0.209091,0.103353
786.936337,0.159091,0.087286
786.969774,0.070455,0.049832
787.003210,0.327273,0.105431
787.036646,0.184091,0.030555
787.070082,-0.209091,0.080930
787.103518,-0.050000,0.095427
787.136953,-0.063636,0.136136
787.170388,0.062121,0.018603
787.203823,0.279545,0.064553
787.237257,-0.040909,0.106673
787.270691,-0.093182,0.032201
787.304125,0.093182,0.032201
787.337559,0.509091,0.337039
787.370992,-0.159091,0.103528
787.404425,-0.155303,0.018844
787.437858,0.075000,0.116259
787.471290,-0.025000,0.067831
787.504723,0.186364,0.111410
787.538155,0.254545,0.167751
787.571586,0.093182,0.032201
787.605018,0.188636,0.058685
787.638449,0.229545,0.067065
787.671880,0.181818,0.085038
787.705310,-0.020455,0.050858
787.738741,-0.231818,0.020706
787.772171,0.322727,0.073399
787.805600,0.209091,0.129924
787.839030,-0.070455,0.049832
787.872459,0.136364,0.093707
787.905888,0.340909,0.137777
787.939317,0.275000,0.212725
787.972745,-0.018182,0.070711
788.006173,0.472727,0.127110
788.039601,0.070455,0.020423
788.073028,-0.118182,0.060473
788.106456,0.184091,0.044347
788.139883,-0.002273,0.102165
788.173309,0.143182,0.096337
788.206736,0.043182,0.052359
788.240162,0.277273,0.131799
788.273588,0.152273,0.166496
788.307013,0.184091,0.054770
788.340439,0.025000,0.067831
788.373864,0.090909,0.055670
788.407288,0.415909,0.046396
788.440713,0.465909,0.225204
788.474137,0.070455,0.038081
788.507561,0.256818,0.039151
788.540985,0.204545,0.152035
788.574408,0.293182,0.153485
788.607831,0.190909,0.070857
788.641254,0.140909,0.025206
788.674677,0.000000,0.032141
788.708099,-0.422727,0.122538
788.741521,0.234091,0.076627
788.774943,1.252273,0.137133
788.808364,1.052273,0.376593
788.841785,1.011364,0.445470
788.875206,0.496970,0.145312
788.908627,0.225000,0.146776
788.942047,0.093182,0.085060
788.975467,0.322727,0.227761
789.008887,-0.090909,0.032141
789.042306,-0.184091,0.054770
789.075726,-0.031061,0.112878
789.109145,0.340909,0.223549
789.142563,0.250000,0.121861
789.175982,0.138636,0.075060
789.209400,0.161364,0.117233
789.242817,0.115909,0.074369
789.276235,0.229545,0.067065
789.309652,0.202273,0.127369
789.343069,-0.100000,0.141056
789.376486,0.068182,0.059047
789.409902,0.045455,0.081944
789.443319,0.213636,0.097144
789.476735,-0.124242,0.018741
789.510150,0.468182,0.156587
789.543565,0.211364,0.099761
789.576980,0.393182,0.428858
789.610395,-0.072727,0.041161
789.643810,0.236364,0.079772
789.677224,-0.027273,0.110128
789.710638,0.062121,0.074239
789.744052,0.118182,0.039886
789.777465,0.245455,0.273370
789.810878,0.072727,0.082822
789.844291,0.368182,0.094339
789.877703,0.095455,0.057631
789.911116,0.306818,0.074299
789.944528,0.190909,0.063147
789.977939,0.000000,0.032141
790.011351,-0.124242,0.018741
790.044762,0.184091,0.044347
790.078173,0.065909,0.068588
790.111583,0.259091,0.044710
790.144994,0.279545,0.055982
790.178404,0.029545,0.086446
790.211813,-0.840909,0.049533
790.245223,-0.093182,0.085060
790.278632,0.225000,0.175615
790.312041,0.338636,0.252782
790.345450,-0.111364,0.082596
790.378858,0.124242,0.074273
790.412266,0.000000,0.000000
790.445674,-0.118182,0.088257
790.479081,-0.029545,0.112420
790.512488,0.206818,0.125531
790.545895,0.097727,0.061269
790.579302,0.363636,0.341666
790.612708,0.155303,0.049206
790.646115,0.322727,0.092123
790.679520,1.547727,0.334799
790.712926,0.559091,0.179344
790.746331,0.124242,0.049167
790.779736,0.025000,0.038753
790.813141,-0.025000,0.038753
790.846545,0.090909,0.055670
790.879949,0.000000,0.096424
790.913353,0.061364,0.196913
790.946757,-0.097727,0.061269
790.980160,0.000000,0.055670
791.013563,0.161364,0.036699
791.046966,0.256818,0.050654
791.080368,0.595455,0.197126
791.113771,0.227273,0.149033
791.147173,0.031061,0.049101
791.180574,0.184091,0.078096
791.213976,0.170455,0.136718
791.247377,0.217424,0.067065
791.280777,0.418182,0.145028
791.314178,0.115909,0.067065
791.347578,0.109091,0.136515
791.380978,0.384091,0.340004
791.414378,0.113636,0.049533
791.447777,-0.252273,0.065899
791.481176,0.284091,0.128941
791.514575,0.165909,0.042927
791.547973,0.229545,0.092897
791.581372,0.093182,0.032201
791.614770,0.277273,0.053926
791.648167,0.329545,0.201604
791.681565,0.484091,0.311179
791.714962,0.227273,0.171587
791.748359,0.365909,0.210037
791.781755,0.027273,0.053203
791.815152,0.140909,0.076162
791.848548,0.302273,0.129899
791.881943,0.062121,0.121692
791.915339,-0.025000,0.038753
791.948734,0.124242,0.074273
791.982129,0.525000,0.272545
792.015523,0.088636,0.107583
792.048918,0.184091,0.078096
792.082312,0.361364,0.293708
792.115705,0.140909,0.104718
792.149099,-0.018182,0.089995
792.182492,0.852273,0.368355
792.215885,0.040909,0.190191
792.249278,-0.068182,0.037689
792.282670,0.211364,0.061269
792.316062,0.254545,0.035791
792.349454,0.097727,0.069188
792.382845,-0.065909,0.088337
792.416236,0.156818,0.082908
792.449627,0.403788,0.081335
792.483018,0.229545,0.092897
792.516408,0.900758,0.083095
792.549798,1.638636,0.333253
792.583188,1.145455,0.379157
792.616578,0.118182,0.039886
792.649967,0.488636,0.080953
792.683356,0.379545,0.112649
792.716745,0.300000,0.085884
792.750133,0.052273,0.080570
792.783521,-0.070455,0.049832
792.816909,0.325000,0.081208
792.850296,0.400000,0.075788
792.883684,0.231818,0.113249
792.917071,0.068182,0.087286
792.950457,-0.027273,0.089420
792.983844,0.059091,0.326728
793.017230,0.159091,0.081153
793.050616,0.322727,0.121181
793.084001,0.088636,0.116791
793.117386,0.217424,0.074369
793.150771,0.115909,0.049311
793.184156,0.193182,0.109440
793.217541,0.120455,0.063748
793.250925,0.068182,0.087286
793.284309,0.284091,0.091440
793.317692,0.070455,0.093175
793.351075,0.000000,0.064282
793.384458,0.188636,0.037119
793.417841,0.347727,0.170632
793.451223,0.025000,0.038753
793.484606,0.045455,0.022727
793.517988,0.047727,0.051363
793.551369,0.168182,0.074239
793.584750,0.415909,0.064952
793.618131,0.124242,0.018741
793.651512,-0.068182,0.087286
793.684893,-0.070455,0.038081
793.718273,0.211364,0.069188
793.751653,0.093182,0.085060
793.785032,-0.006818,0.106279
793.818411,0.138636,0.098824
793.851790,0.075000,0.091384
793.885169,0.090909,0.071870
793.918548,-0.111364,0.114107
793.951926,0.686364,0.201787
793.985304,0.138636,0.103920
794.018681,0.411364,0.112051
794.052059,0.022727,0.269632
794.085436,0.165909,0.077298
794.118812,-0.062121,0.066920
794.152189,0.075000,0.072469
794.185565,0.186364,0.032381
794.218941,0.217424,0.103422
794.252317,0.070455,0.020423
794.285692,-0.025000,0.087751
794.319067,-0.163636,0.038569
794.352442,0.552273,0.136869
794.385816,1.056061,0.324316
794.419190,1.894697,0.192536
794.452564,2.722727,0.242267
794.485938,2.205303,0.595640
794.519311,0.084091,0.182481
794.552684,0.534091,0.065031
794.586057,-0.275000,0.053819
794.619429,-0.062121,0.037137
794.652802,0.045455,0.039365
794.686173,0.279545,0.210847
794.719545,0.654545,0.244865
794.752916,0.075000,0.335231
794.786287,-0.000000,0.115887
794.819658,-0.022727,0.074516
794.853029,-0.062121,0.074239
794.886399,0.248485,0.145028
794.919769,-0.029545,0.080249
794.953138,0.165909,0.110333
794.986508,-0.320455,0.066290
795.019877,-0.020455,0.109014
795.053245,0.062121,0.098202
795.086614,0.556818,0.214634
795.119982,0.213636,0.056909
795.153350,0.145455,0.082322
795.186718,0.325000,0.113107
795.220085,0.238636,0.100842
795.253452,0.436364,0.119572
795.286819,0.136364,0.093707
795.320185,0.181818,0.106600
795.353551,-0.043182,0.041333
795.386917,0.115909,0.103422
795.420283,0.063636,0.248840
795.453648,0.000000,0.055670
795.487013,0.529545,0.159363
795.520378,0.145455,0.088374
795.553742,0.528030,0.130375
795.587107,0.252273,0.170693
795.620471,0.120455,0.084634
795.653834,0.217424,0.074369
795.687197,0.043182,0.052359
795.720560,0.227273,0.199431
795.753923,0.075000,0.072469
795.787286,0.161364,0.066679
795.820648,0.320455,0.092340
795.854010,-0.097727,0.142418
795.887371,0.302273,0.049101
795.920733,0.275000,0.095367
795.954094,0.115909,0.074369
795.987454,0.000000,0.055670
796.020815,0.155303,0.066988
796.054175,0.277273,0.029016
796.087535,0.213636,0.072834
796.120894,0.238636,0.077698
796.154254,0.248485,0.151984
796.187613,0.395455,0.144939
796.220971,0.434848,0.152171
796.254330,1.087121,0.105841
796.287688,2.406818,0.529164
796.321046,8.413636,0.903171
796.354403,8.496212,0.533577
796.387761,3.509848,0.177953
796.421118,0.621212,0.165457
796.454474,0.550000,0.211290
796.487831,0.372727,0.111618
796.521187,0.159091,0.081153
796.554543,0.072727,0.041161
796.587898,0.486364,0.184455
796.621254,0.322727,0.198691
796.654609,-0.138636,0.050347
796.687963,0.365909,0.149737
796.721318,-0.161364,0.036699
796.754672,-0.452273,0.162317
796.788026,0.159091,0.137777
796.821379,0.072727,0.104841
796.854732,0.209091,0.098228
796.888085,0.186364,0.167057
796.921438,0.047727,0.051363
796.954790,0.138636,0.098824
796.988142,0.575000,0.087633
797.021494,0.800000,0.355070
797.054846,-0.004545,0.113249
797.088197,-0.111364,0.130968
797.121548,0.318182,0.134456
797.154899,0.209091,0.080930
797.188249,0.345455,0.140248
797.221599,0.593182,0.432361
797.254949,0.238636,0.090017
797.288298,0.372727,0.111618
797.321648,0.711364,0.321386
797.354996,0.125000,0.177050
797.388345,0.868182,0.378960
797.421693,0.252273,0.140850
797.455041,0.093182,0.140114
797.488389,0.807576,0.122874
797.521737,0.465909,0.222898
797.555084,-0.031061,0.049101
797.588431,-0.300000,0.056954
797.621777,0.075000,0.107005
797.655124,-0.027273,0.183908
797.688470,0.588636,0.437468
797.721815,0.281818,0.075103
797.755161,0.302273,0.080890
797.788506,0.511364,0.188359
797.821851,0.370455,0.149841
797.855196,0.234091,0.052654
797.888540,0.186364,0.085129
797.921884,-0.138636,0.075060
797.955228,0.231818,0.049948
797.988571,0.413636,0.195547
798.021914,0.070455,0.038081
798.055257,-0.031061,0.066910
798.088599,0.961364,0.209001
798.121942,0.972727,0.194819
798.155284,2.338636,0.541609
798.188625,5.238636,0.764896
798.221967,9.777273,0.995348
798.255308,14.459091,0.250237
798.288649,4.690152,0.712806
798.321989,0.714394,0.361576
798.355329,0.393182,0.179052
798.388669,-0.217424,0.098300
798.422009,0.495455,0.156851
798.455348,0.350000,0.122538
798.488687,0.395455,0.182767
798.522026,0.511364,0.206665
798.555365,0.250000,0.148599
798.588703,0.302273,0.103322
798.622041,0.155303,0.018844
798.655378,0.475000,0.242669
798.688716,0.124242,0.080930
798.722053,0.300000,0.072869
798.755389,0.186364,0.032381
798.788726,0.493182,0.304552
798.822062,0.031061,0.018568
798.855398,0.227273,0.149033
798.888733,0.413636,0.276517
798.922069,0.165909,0.139301
798.955404,0.040909,0.071978
798.988738,0.527273,0.159545
799.022073,0.297727,0.079732
799.055407,0.936364,0.472093
799.088741,-0.020455,0.109014
799.122074,0.745455,0.243171
799.155408,0.188636,0.058685
799.188741,0.252273,0.065899
799.222073,0.272727,0.178955
799.255406,0.088636,0.086266
799.288738,0.206818,0.073671
799.322069,0.062121,0.037137
799.355401,0.004545,0.113249
799.388732,-0.031061,0.098195
799.422063,0.124242,0.080930
799.455394,0.456818,0.165781
799.488724,0.318182,0.209535
799.522054,0.000000,0.055670
799.555384,0.279545,0.111497
799.588713,0.186364,0.085129
799.622042,-0.147727,0.158583
799.655371,0.552273,0.182198
799.688700,0.097727,0.221830
799.722028,0.372727,0.007873
799.755356,-0.043182,0.041333
799.788684,0.062121,0.098202
799.822011,-0.155303,0.066988
799.855338,0.915909,0.420220
799.888665,0.931818,0.567158
799.921992,0.450000,0.167674
799.955318,0.181818,0.111340
799.988644,1.097727,0.477093
800.021969,1.000000,0.294579
800.055295,2.688636,0.402066
800.088620,9.136364,0.861541
800.121945,23.286364,1.124362
800.155269,25.809091,1.169101
800.188593,9.535606,0.281311
800.221917,2.754545,0.350825
800.255241,0.559091,0.161139
800.288564,0.411364,0.276776
800.321887,0.465909,0.085605
800.355210,0.384091,0.366331
800.388532,0.093182,0.032201
800.421854,0.361364,0.141945
800.455176,0.140909,0.076162
800.488498,0.843182,0.231001
800.521819,0.688636,0.306917
800.555140,-0.311364,0.249346
800.588461,0.250000,0.133975
800.621781,0.463636,0.381195
800.655101,-0.009091,0.159610
800.688421,0.247727,0.274151
800.721740,0.254545,0.140982
800.755060,0.115909,0.037397
800.788379,0.031061,0.018568
800.821697,0.179545,0.137509
800.855015,0.124242,0.018741
800.888334,-0.070455,0.049832
800.921651,0.431818,0.223549
800.954969,0.236364,0.176514
800.988286,0.761364,0.525038
801.021603,0.477273,0.286355
801.054919,0.528030,0.262013
801.088235,1.027273,0.297267
801.121551,0.155303,0.151929
801.154867,0.025000,0.067831
801.188183,0.118182,0.068484
801.221498,0.684091,0.233889
801.254812,0.186364,0.032381
801.288127,0.279545,0.140225
801.321441,0.300000,0.072869
801.354755,0.838636,0.243307
801.388069,0.931818,0.196496
801.421382,-0.031061,0.177021
801.454695,-0.062121,0.037137
801.488008,0.163636,0.050206
801.521320,1.209091,0.406990
801.554632,0.538636,0.191325
801.587944,1.129545,0.290845
801.621256,0.375000,0.076018
801.654567,0.043182,0.041333
801.687878,-0.031061,0.037119
801.721189,0.200000,0.148129
801.754499,0.090909,0.085038
801.787809,0.875000,0.121729
801.821119,1.056061,0.389446
801.854428,0.155303,0.066988
801.887737,0.372727,0.064763
801.921046,1.195455,0.260195
801.954355,1.340909,0.443473
801.987663,5.684091,0.499952
802.020971,24.509091,1.754734
802.054279,50.886364,1.226589
802.087586,35.315909,1.020277
802.120894,9.411364,1.081041
802.154200,1.739394,0.165894
802.187507,0.327273,0.028020
802.220813,0.461364,0.130296
802.254119,0.593182,0.157307
802.287425,-0.004545,0.162034
802.320730,0.436364,0.139509
802.354035,0.145455,0.269986
802.387340,0.254545,0.035791
802.420644,0.062121,0.018603
802.453949,0.575000,0.081526
802.487252,0.252273,0.057530
802.520556,0.109091,0.096638
802.553859,1.118182,0.275629
802.587162,0.236364,0.173563
802.620465,0.654545,0.231863
802.653767,0.209091,0.049167
802.687069,0.254545,0.097701
802.720371,0.497727,0.274904
802.753673,0.438636,0.110800
802.786974,0.279545,0.111497
802.820275,0.977273,0.286355
802.853576,0.481818,0.239964
802.886876,0.436364,0.178492
802.920176,-0.093182,0.032201
802.953476,0.584091,0.291200
802.986775,0.888636,0.130968
803.020074,0.209091,0.066959
803.053373,0.163636,0.130321
803.086672,0.295455,0.234818
803.119970,0.468182,0.062117
803.153268,0.045455,0.122390
803.186565,0.070455,0.081335
803.219863,0.093182,0.115904
803.253160,0.334091,0.144220
803.286457,0.402273,0.155756
803.319753,0.155303,0.177050
803.353049,-0.211364,0.069188
803.386345,0.186364,0.064403
803.419641,0.493182,0.119329
803.452936,0.229545,0.121771
803.486231,0.595455,0.230914
803.519525,0.575000,0.223685
803.552820,-0.062121,0.074239
803.586114,0.531818,0.135356
803.619408,0.368182,0.165816
803.652701,0.811364,0.164937
803.685994,0.093182,0.147303
803.719287,1.238636,0.602031
803.752580,0.609091,0.208150
803.785872,0.496970,0.067726
803.819164,0.297727,0.129181
803.852456,1.543182,0.440351
803.885747,5.265909,1.083085
803.919038,13.052273,0.825275
803.952329,44.725758,0.987352
803.985620,84.262121,1.776477
804.018910,47.957576,2.400637
804.052200,10.156818,0.235211
804.085489,2.018939,0.358045
804.118779,0.984091,0.352652
804.152068,0.188636,0.125860
804.185357,0.913636,0.317556
804.218645,0.231818,0.148738
804.251933,0.341667,0.130098
804.285221,0.286364,0.111038
804.318508,0.506818,0.156748
804.351796,0.397727,0.043643
804.385083,0.545455,0.167011
804.418369,0.181818,0.184637
804.451656,1.700000,0.300034
804.484942,0.004545,0.117722
804.518227,-0.062121,0.080898
804.551513,0.155303,0.037258
804.584798,0.854545,0.207205
804.618083,0.813636,0.231807
804.651367,0.488636,0.164969
804.684652,1.002273,0.353705
804.717936,-0.155303,0.080953
804.751219,0.677273,0.282432
804.784503,0.518182,0.110128
804.817786,0.931818,0.295236
804.851068,0.279545,0.111497
804.884351,0.620455,0.216289
804.917633,1.056818,0.371149
804.950915,0.943182,0.341430
804.984196,0.727273,0.400155
805.017478,1.122727,0.597978
805.050759,1.297727,0.157963
805.084039,0.186364,0.064403
805.117320,0.297727,0.129181
805.150600,1.159091,0.460613
805.183879,0.120455,0.071392
805.217159,0.531818,0.212558
805.250438,0.518182,0.123399
805.283717,1.286364,0.200554
805.316995,1.302273,0.357958
805.350274,0.552273,0.097137
805.383552,1.265909,0.219959
805.416829,0.113636,0.037689
805.450107,0.217424,0.067065
805.483384,0.186364,0.085129
805.516660,0.217424,0.037397
805.549937,0.720455,0.111497
805.583213,0.477273,0.201685
805.616489,0.793182,0.323580
805.649764,1.329545,0.283579
805.683040,0.272727,0.150756
805.716315,0.311364,0.274960
805.749589,0.325000,0.372594
805.782864,0.838636,0.161679
805.816138,5.959091,0.867465
805.849411,32.103030,1.094143
805.882685,111.027273,1.889384
805.915958,191.902273,6.326934
805.949231,141.884848,5.342481
805.982504,35.906061,2.155653
806.015776,6.553788,0.192536
806.049048,1.231818,0.657298
806.082319,0.154545,0.206155
806.115591,0.727273,0.308288
806.148862,0.404545,0.276143
806.182133,0.302273,0.133816
806.215403,0.390909,0.217850
806.248673,0.659091,0.196496
806.281943,0.704545,0.180034
806.315213,0.186364,0.085129
806.348482,0.379545,0.243264
806.381751,0.163636,0.122137
806.415019,-0.143182,0.096337
806.448288,0.343182,0.107102
806.481556,1.306818,0.500871
806.514823,0.586364,0.111410
806.548091,0.277273,0.043301
806.581358,0.931818,0.468397
806.614625,0.686364,0.374297
806.647891,0.465909,0.225204
806.681158,1.045455,0.068182
806.714424,0.547727,0.219183
806.747689,0.217424,0.067065
806.780955,0.725000,0.466772
806.814220,0.700000,0.364119
806.847484,0.761364,0.202881
806.880749,1.206818,0.687216
806.914013,0.013636,0.213528
806.947277,0.534091,0.294743
806.980540,1.027273,0.390671
807.013803,0.663636,0.315476
807.047066,0.302273,0.218782
807.080329,0.370455,0.083405
807.113591,0.561364,0.189834
807.146853,0.620455,0.148281
807.180115,0.090909,0.106600
807.213376,0.310606,0.133975
807.246637,0.840909,0.379450
807.279898,0.445455,0.121373
807.313159,0.509091,0.287408
807.346419,0.204545,0.232608
807.379679,0.120455,0.139856
807.412938,0.363636,0.106600
807.446198,0.625000,0.134816
807.479457,0.752273,0.262407
807.512715,0.729545,0.317050
807.545974,0.086364,0.104718
807.579232,0.304545,0.089391
807.612490,0.618182,0.230522
807.645747,1.090909,0.251031
807.679004,1.181818,0.544507
807.712261,1.118182,0.252140
807.745518,6.127273,0.480788
807.778774,30.940909,1.125005
807.812030,132.877273,3.483808
807.845285,312.968182,7.946485
807.878541,332.165909,5.642911
807.911796,116.446212,3.478176
807.945051,23.637121,0.912286
807.978305,4.686364,0.810198
808.011559,1.097727,0.463139
808.044813,1.361364,0.253903
808.078066,0.668182,0.170485
808.111320,0.943182,0.210381
808.144573,0.372727,0.116154
808.177825,0.788636,0.162730
808.211078,0.745455,0.255598
808.244330,0.528030,0.152302
808.277581,1.447727,0.345326
808.310833,1.521970,0.261776
808.344084,1.656818,0.590213
808.377335,2.329545,0.446339
808.410585,1.904545,0.469322
808.443835,1.988636,0.668888
808.477085,0.745455,0.295000
808.510335,1.009091,0.498199
808.543584,1.450000,0.232252
808.576833,1.304545,0.149845
808.610082,1.366667,0.179358
808.643330,0.500000,0.399509
808.676578,1.195455,0.162417
808.709826,1.781818,0.321669
808.743073,0.968182,0.200554
808.776320,0.295455,0.230377
808.809567,1.561364,0.548179
808.842814,1.209091,0.277124
808.876060,1.743182,0.626946
808.909306,0.931818,0.211681
808.942552,2.050000,0.865318
808.975797,1.638636,0.500520
809.009042,1.087121,0.215235
809.042287,0.440909,0.129106
809.075531,0.254545,0.086483
809.108775,0.745455,0.432702
809.142019,1.568182,0.289940
809.175262,2.606818,0.306665
809.208506,0.997727,0.410482
809.241748,1.313636,0.411125
809.274991,1.472727,0.242320
809.308233,0.124242,0.018741
809.341475,1.025000,0.201886
809.374717,1.197727,0.316038
809.407958,0.807576,0.194488
809.441199,0.902273,0.327200
809.474440,0.248485,0.098333
809.507680,1.220455,0.294375
809.540921,0.888636,0.159427
809.574160,1.302273,0.330967
809.607400,1.534091,0.422255
809.640639,1.520455,0.384425
809.673878,1.500000,0.241594
809.707117,9.406818,1.107988
809.740355,41.279545,1.437375
809.773593,202.154545,8.723315
809.806831,445.188636,15.072604
809.840068,387.108333,9.187647
809.873305,92.809091,1.995102
809.906542,16.306818,2.318593
809.939778,2.857576,0.215274
809.973015,1.061364,0.510058
810.006250,2.159091,0.465077
810.039486,0.714394,0.273774
810.072721,1.381818,0.395794
810.105956,0.934091,0.245946
810.139191,1.547727,0.354434
810.172425,1.672727,0.335195
810.205659,1.668182,0.528266
810.238893,1.940909,0.704864
810.272126,1.013636,0.140597
810.305359,2.788636,0.322429
810.338592,4.197727,0.957400
810.371825,3.829545,0.261302
810.405057,2.888636,0.250214
810.438289,2.463636,0.481325
810.471520,2.975000,0.411048
810.504751,2.677273,0.564639
810.537982,1.832576,0.469948
810.571213,1.553030,0.209227
810.604443,2.143182,0.120192
810.637673,1.397727,0.256816
810.670903,1.243182,0.294814
810.704133,0.825000,0.258200
810.737362,1.888636,0.726280
810.770591,0.807576,0.131012
810.803819,0.470455,0.235277
810.837047,1.731818,0.385715
810.870275,1.273485,0.184732
810.903503,1.197727,0.277764
810.936730,0.590909,0.214409
810.969957,0.890909,0.272803
811.003184,1.304545,0.431621
811.036410,1.602273,0.380088
811.069636,0.827273,0.263205
811.102862,1.304545,0.352581
811.136087,1.259091,0.078302
811.169312,1.025000,0.117892
811.202537,0.465909,0.167300
811.235762,1.529545,0.658137
811.268986,1.554545,0.413936
811.302210,1.340909,0.188445
811.335433,1.272727,0.401444
811.368656,1.825000,0.345026
811.401879,2.495455,0.383027
811.435102,1.404545,0.462225
811.468324,1.987879,0.439572
811.501546,2.827273,0.395036
811.534768,1.120455,0.055052
811.567990,2.318182,0.470734
811.601211,1.004545,0.330000
811.634432,2.802273,0.309932
811.667652,7.040909,0.814902
811.700872,31.688636,1.405488
811.734092,133.638636,2.638754
811.767312,273.984091,3.590432
811.800531,233.497727,4.542300
811.833750,67.028788,2.328572
811.866969,11.120455,0.331902
811.900187,3.781818,0.303492
811.933405,0.940909,0.247581
811.966623,0.886364,0.384857
811.999840,0.714394,0.094003
812.033057,1.059091,0.174083
812.066274,0.550000,0.208831
812.099490,0.684091,0.519211
812.132707,1.261364,0.446628
812.165923,2.227273,0.666882
812.199138,2.179545,0.480298
812.232353,1.318182,0.228406
812.265568,0.931818,0.098412
812.298783,0.527273,0.320833
812.331997,1.584091,0.091384
812.365211,1.211364,0.327200
812.398425,1.865909,0.272071
812.431638,0.838636,0.117233
812.464851,1.922727,0.528266
812.498064,1.847727,0.394348
812.531277,0.981818,0.105822
812.564489,1.690909,0.492464
812.597701,1.856818,0.205763
812.630912,1.813636,0.716839
812.664123,1.163636,0.158896
