#{
#    "background_file": "Backgrounds\\\\bg_785.995nm_13bin_219st_244en_10.0s_110g_4x_13_seq.txt",
#    "ccd_image_settings": [
#        1,
#        13,
#        1,
#        1600,
#        219,
#        244
#    ],
#    "ccd_temperature": "-87",
#    "cdRatios": {
#        "mean": 0.9590879982384822,
#        "std": 0.007416388166769258
#    },
#    "center_lambda": 786.0,
#    "comments": "",
#    "dark_region": 21.87033721967413,
#    "date": "10/22/20 17:02:34PM",
#    "eff_field": 1.5,
#    "exposure": 10.0,
#    "fel_lambda": "15.0",
#    "fel_pol": "H",
#    "fel_pulses": 42,
#    "fel_pyro_cal": "0.012",
#    "fel_reprate": "1.07",
#    "fel_transmission": "1.0",
#    "fel_transmission_fits": {
#        "A": 1.0,
#        "C": 0.0,
#        "Mu": 0.0
#    },
#    "fieldInt": {
#        "mean": 4863.947424242424,
#        "std": 462.0133787891842
#    },
#    "fieldStrength": {
#        "mean": 31.932140151515156,
#        "std": 1.6836543385551543
#    },
#    "fpTime": {
#        "mean": 0.943165175054255,
#        "std": 0.08509380746087326
#    },
#    "gain": 110,
#    "grating": 3,
#    "images_in_sequence": [
#        "hsg_820nm_c123_am45_HAna453.txt",
#        "hsg_820nm_c123_am45_HAna454.txt",
#        "hsg_820nm_c123_am45_HAna455.txt",
#        "hsg_820nm_c123_am45_HAna456.txt"
#    ],
#    "nir_lambda": "819.98",
#    "nir_pola": "-45",
#    "nir_polg": "0",
#    "nir_power": "100.0",
#    "pulseEnergies": {
#        "mean": 1.465659090909091,
#        "std": 0.1464047003364952
#    },
#    "pyroVoltage": {
#        "mean": 0.1274522860354936,
#        "std": 0.013390875960355417
#    },
#    "rotatorAngle": 315.0,
#    "sample_Temp": "55",
#    "sample_name": "L001218.C1",
#    "series": "820_Fan",
#    "slits": "60",
#    "spec_step": "",
#    "window_trans": 0.92,
#    "y_max": 2,
#    "y_min": 1
#}
#
#
#
#
#
#
#
#
#
#
#
#
#
#
#
#
#
#
#
#
#
#
#
#
#
#
Wavelength,Signal,error
nm,arb. u.,arb.u.
Wavelength,820_Fan,error
759.194366,0.377273,0.238982
759.228015,0.045455,0.052911
759.261663,0.384091,0.095691
759.295311,0.320455,0.264797
759.328959,0.120455,0.039545
759.362607,0.033333,0.038075
759.396254,-0.140909,0.020455
759.429901,0.088636,0.203695
759.463548,-0.002273,0.056625
759.497194,-0.009091,0.199845
759.530841,0.472727,0.281451
759.564487,0.200000,0.159318
759.598133,-0.093182,0.134548
759.631779,-0.068182,0.094174
759.665424,0.125000,0.104168
759.699069,0.150000,0.107972
759.732714,0.095455,0.064323
759.766359,0.386364,0.092793
759.800003,0.427273,0.155943
759.833648,0.111364,0.126963
759.867292,-0.118182,0.149690
759.900935,0.122727,0.054782
759.934579,0.161364,0.086863
759.968222,0.088636,0.073320
760.001865,-0.009091,0.115082
760.035508,0.206818,0.125531
760.069151,0.281818,0.217470
760.102793,0.786364,0.399257
760.136435,0.065909,0.088337
760.170077,0.200000,0.208373
760.203718,0.186364,0.152950
760.237360,-0.295455,0.235367
760.271001,0.063636,0.101334
760.304642,0.365909,0.242924
760.338283,-0.020455,0.135466
760.371923,-0.022727,0.019682
760.405563,0.640909,0.332168
760.439203,0.070455,0.094605
760.472843,0.528030,0.194059
760.506482,-0.015909,0.090703
760.540122,0.790909,0.353597
760.573761,0.568182,0.178854
760.607399,0.338636,0.090760
760.641038,0.093182,0.126228
760.674676,0.136364,0.075378
760.708314,0.304545,0.079415
760.741952,0.375000,0.083529
760.775589,0.234091,0.149115
760.809227,0.161364,0.149806
760.842864,-0.022727,0.040465
760.876501,-0.386364,0.065279
760.910137,0.206818,0.094660
760.943774,0.236364,0.018182
760.977410,0.179545,0.164718
761.011046,0.075000,0.052458
761.044681,0.181818,0.102701
761.078317,0.284091,0.073671
761.111952,0.113636,0.144510
761.145587,-0.143182,0.082345
761.179221,0.004545,0.059396
761.212856,-0.275000,0.143969
761.246490,0.484091,0.232472
761.280124,0.202273,0.126147
761.313758,-0.047727,0.023918
761.347391,0.318182,0.098857
761.381024,-0.411364,0.071537
761.414657,0.015909,0.154892
761.448290,0.552273,0.339716
761.481923,0.238636,0.124912
761.515555,0.502273,0.086685
761.549187,-0.045455,0.074273
761.582819,-0.240909,0.046075
761.616450,-0.275000,0.195570
761.650082,-0.122727,0.095913
761.683713,0.161364,0.083343
761.717344,-0.306818,0.072469
761.750974,-0.200000,0.138319
761.784605,-0.052273,0.267108
761.818235,0.268182,0.067840
761.851865,0.009091,0.100721
761.885494,-0.575000,0.044464
761.919124,0.263636,0.150516
761.952753,-0.129545,0.111636
761.986382,0.190909,0.064443
762.020010,0.311364,0.041458
762.053639,0.236364,0.323143
762.087267,0.168182,0.041969
762.120895,0.143182,0.055519
762.154523,0.000000,0.064282
762.188150,0.018182,0.127070
762.221777,0.177273,0.155628
762.255404,0.068182,0.112333
762.289031,-0.093182,0.055705
762.322658,0.070455,0.094605
762.356284,-0.004545,0.067535
762.389910,-0.404545,0.038903
762.423536,0.297727,0.203669
762.457161,0.222727,0.167674
762.490786,0.254545,0.111480
762.524411,0.036364,0.137420
762.558036,0.263636,0.178434
762.591661,0.229545,0.105498
762.625285,-0.200000,0.162877
762.658909,-0.120455,0.068286
762.692533,0.043182,0.069337
762.726157,-0.025000,0.089268
762.759780,0.061364,0.271843
762.793403,0.475000,0.160396
762.827026,0.097727,0.093562
762.860649,0.334091,0.119718
762.894271,0.240909,0.079090
762.927893,0.022727,0.019682
762.961515,0.420455,0.189725
762.995137,0.138636,0.132029
763.028758,0.436364,0.270521
763.062379,-0.193182,0.062272
763.096000,0.947727,0.305229
763.129621,0.386364,0.074239
763.163241,0.102273,0.116304
763.196862,0.290909,0.094912
763.230481,0.352273,0.080377
763.264101,0.050000,0.053926
763.297721,0.304545,0.100284
763.331340,0.970455,0.508110
763.364959,0.065909,0.088337
763.398578,0.640909,0.427690
763.432196,0.575000,0.360317
763.465814,0.084091,0.147548
763.499432,0.786364,0.283290
763.533050,0.122727,0.082165
763.566668,0.095455,0.077706
763.600285,-0.211364,0.047822
763.633902,0.090909,0.065948
763.667519,0.263636,0.051526
763.701135,-0.165909,0.053626
763.734752,-0.038636,0.156418
763.768368,0.536364,0.195982
763.801984,-0.063636,0.101334
763.835599,-0.163636,0.050206
763.869215,0.150000,0.129904
763.902830,-0.090909,0.086304
763.936444,0.025000,0.067831
763.970059,0.045455,0.052911
764.003673,0.445455,0.206581
764.037288,0.236364,0.051124
764.070901,-0.129545,0.212385
764.104515,0.006818,0.143861
764.138128,0.143182,0.024133
764.171742,0.047727,0.082282
764.205354,0.056818,0.109392
764.238967,0.140909,0.080321
764.272580,0.240909,0.169269
764.306192,0.381818,0.103103
764.339804,0.295455,0.177462
764.373415,0.136364,0.195745
764.407027,0.031818,0.111038
764.440638,0.375000,0.109440
764.474249,0.218182,0.056408
764.507860,-0.061364,0.205085
764.541470,0.370455,0.137547
764.575080,0.338636,0.078557
764.608690,-0.095455,0.035428
764.642300,-0.159091,0.181064
764.675909,0.172727,0.124731
764.709519,0.195455,0.061364
764.743128,0.093182,0.055705
764.776736,0.259091,0.066688
764.810345,0.795455,0.412467
764.843953,0.013636,0.181064
764.877561,-0.070455,0.038081
764.911169,0.493182,0.204858
764.944776,0.268182,0.076500
764.978384,0.040909,0.101716
765.011991,-0.022727,0.073399
765.045598,0.368182,0.144081
765.079204,0.200000,0.149275
765.112810,0.393182,0.175380
765.146416,-0.102273,0.092340
765.180022,0.454545,0.109422
765.213628,0.029545,0.144005
765.247233,0.402273,0.347398
765.280838,0.245455,0.109563
765.314443,0.225000,0.124373
765.348048,0.086364,0.104718
765.381652,-0.163636,0.111665
765.415256,0.070455,0.038081
765.448860,0.227273,0.141786
765.482463,-0.311364,0.090475
765.516067,0.538636,0.183046
765.549670,0.438636,0.257499
765.583273,0.145455,0.027273
765.616875,0.286364,0.077971
765.650478,0.241667,0.291253
765.684080,0.168182,0.050769
765.717682,0.015909,0.084817
765.751283,0.040909,0.146604
765.784885,0.393182,0.246491
765.818486,0.188636,0.030724
765.852087,0.138636,0.093452
765.885687,0.425000,0.288043
765.919288,-0.002273,0.033767
765.952888,0.043182,0.094551
765.986488,0.172727,0.074551
766.020087,0.065909,0.124373
766.053687,0.106818,0.142599
766.087286,0.197727,0.182849
766.120885,0.263636,0.108569
766.154484,0.070455,0.020423
766.188082,0.425000,0.080890
766.221680,0.236364,0.147850
766.255278,0.020455,0.114829
766.288876,0.113636,0.059047
766.322473,0.122727,0.082165
766.356070,0.170455,0.073671
766.389667,0.186364,0.172173
766.423264,-0.118182,0.088257
766.456860,0.272727,0.139176
766.490457,0.168182,0.041969
766.524053,0.361364,0.395616
766.557648,0.163636,0.111896
766.591244,0.418182,0.197427
766.624839,0.200000,0.149275
766.658434,0.050000,0.068973
766.692029,0.393182,0.205085
766.725623,0.247727,0.259158
766.759217,-0.068182,0.037689
766.792811,-0.243182,0.074091
766.826405,0.095455,0.106090
766.859999,0.215909,0.064313
766.893592,0.261364,0.110192
766.927185,0.120455,0.111033
766.960777,-0.459091,0.072264
766.994370,0.481818,0.097595
767.027962,0.047727,0.051363
767.061554,-0.002273,0.060334
767.095146,0.179545,0.145255
767.128737,0.093182,0.126228
767.162329,0.175000,0.291253
767.195920,0.218182,0.072443
767.229510,0.284091,0.054106
767.263101,0.379545,0.355918
767.296691,0.084091,0.151554
767.330281,-0.145455,0.055017
767.363871,-0.034091,0.194405
767.397460,0.147727,0.075404
767.431050,0.300000,0.186502
767.464639,0.168182,0.041969
767.498227,0.500000,0.351781
767.531816,-0.022727,0.040465
767.565404,-0.520455,0.065664
767.598992,0.186364,0.135623
767.632580,0.404545,0.107301
767.666168,0.025000,0.063260
767.699755,0.018182,0.070711
767.733342,0.468182,0.096718
767.766929,-0.022727,0.040465
767.800515,0.400000,0.293314
767.834101,0.225000,0.226940
767.867687,-0.093182,0.032201
767.901273,0.052273,0.141508
767.934859,-0.343182,0.178677
767.968444,0.006818,0.109061
768.002029,0.050000,0.053926
768.035614,0.027273,0.053203
768.069198,0.227273,0.197112
768.102783,-0.718182,0.087787
768.136367,-0.002273,0.060334
768.169950,0.002273,0.085666
768.203534,0.106818,0.161552
768.237117,0.204545,0.167674
768.270700,0.143182,0.055519
768.304283,0.586364,0.255224
768.337866,-0.031818,0.121564
768.371448,-0.120455,0.039545
768.405030,-0.043182,0.052359
768.438612,0.115909,0.089614
768.472193,0.334091,0.025180
768.505775,0.000000,0.035355
768.539356,0.095455,0.035428
768.572936,0.095455,0.035428
768.606517,-0.234091,0.048359
768.640097,-0.043182,0.069337
768.673677,-0.140909,0.051975
768.707257,0.072727,0.041161
768.740836,0.211364,0.035410
768.774416,0.288636,0.128500
768.807995,-0.022727,0.019682
768.841574,0.127273,0.098909
768.875152,0.193182,0.094222
768.908730,-0.020455,0.071320
768.942308,-0.043182,0.072398
768.975886,-0.050000,0.043301
769.009464,0.359091,0.075344
769.043041,0.043182,0.123037
769.076618,0.238636,0.024557
769.110195,0.275000,0.300419
769.143771,0.540909,0.305756
769.177348,0.231818,0.206843
769.210924,-0.004545,0.059396
769.244499,0.475000,0.293003
769.278075,0.247727,0.194590
769.311650,0.243182,0.143141
769.345225,0.170455,0.102115
769.378800,0.186364,0.077440
769.412375,0.284091,0.133893
769.445949,-0.050000,0.053926
769.479523,0.161364,0.123331
769.513097,0.363636,0.127110
769.546670,0.093182,0.055705
769.580243,-0.120455,0.023038
769.613816,-0.013636,0.122411
769.647389,-0.359091,0.043894
769.680962,0.120455,0.039545
769.714534,-0.045455,0.052911
769.748106,0.045455,0.039365
769.781678,0.395455,0.224655
769.815249,-0.018182,0.070711
769.848820,-0.190909,0.146798
769.882391,0.093182,0.059472
769.915962,0.072727,0.081502
769.949533,-0.115909,0.062438
769.983103,0.002273,0.033767
770.016673,0.197727,0.079797
770.050243,0.209091,0.158571
770.083812,0.145455,0.207205
770.117381,-0.020455,0.100432
770.150950,0.222727,0.114519
770.184519,-0.168182,0.061867
770.218088,0.038636,0.173574
770.251656,-0.215909,0.064313
770.285224,-0.168182,0.041969
770.318791,0.070455,0.038081
770.352359,0.145455,0.042153
770.385926,0.115909,0.062438
770.419493,0.193182,0.077097
770.453060,0.043182,0.150460
770.486626,0.120455,0.128700
770.520192,0.022727,0.107637
770.553758,0.070455,0.038081
770.587324,0.000000,0.035355
770.620890,-0.015909,0.179427
770.654455,0.284091,0.091440
770.688020,0.306818,0.046396
770.721584,-0.025000,0.063260
770.755149,0.143182,0.071753
770.788713,-0.088636,0.073320
770.822277,0.175000,0.128459
770.855841,-0.454545,0.075992
770.889404,0.040909,0.095373
770.922967,0.409091,0.328564
770.956530,0.052273,0.054391
770.990093,0.168182,0.150258
771.023655,0.322727,0.133357
771.057217,0.165909,0.053626
771.090779,0.227273,0.199974
771.124341,-0.404545,0.087817
771.157902,0.147727,0.056442
771.191463,0.215909,0.040449
771.225024,0.195455,0.063107
771.258585,-0.095455,0.047835
771.292145,0.236364,0.051124
771.325705,0.756818,0.398102
771.359265,-0.020455,0.071320
771.392825,0.254545,0.097701
771.426384,0.350000,0.276872
771.459943,0.420455,0.208556
771.493502,0.263636,0.303611
771.527061,0.468182,0.210114
771.560619,-0.263636,0.051526
771.594177,0.179545,0.145255
771.627735,0.222727,0.198405
771.661293,0.145455,0.042153
771.694850,-0.015909,0.117585
771.728407,0.184091,0.084451
771.761964,0.215909,0.064313
771.795521,0.225000,0.118329
771.829077,0.047727,0.082282
771.862633,0.218182,0.114587
771.896189,-0.168182,0.061867
771.929744,-0.050000,0.040719
771.963300,0.225000,0.143069
771.996855,-0.047727,0.023918
772.030409,0.304545,0.142965
772.063964,0.072727,0.021076
772.097518,-0.097727,0.076289
772.131072,-0.277273,0.141914
772.164626,-0.022727,0.107637
772.198180,0.129545,0.201912
772.231733,0.243182,0.110098
772.265286,0.238636,0.242882
772.298839,-0.081818,0.202209
772.332391,-0.047727,0.055426
772.365943,0.415909,0.160139
772.399495,0.127273,0.121586
772.433047,0.015909,0.255566
772.466598,-0.161364,0.083343
772.500150,0.056818,0.099502
772.533701,0.047727,0.051363
772.567251,-0.025000,0.038753
772.600802,0.350000,0.262173
772.634352,0.106818,0.133623
772.667902,0.443182,0.276776
772.701452,0.265909,0.318853
772.735001,0.386364,0.390466
772.768550,0.095455,0.047835
772.802099,-0.384091,0.040703
772.835648,0.125000,0.126555
772.869196,0.290909,0.072514
772.902744,-0.145455,0.082322
772.936292,0.093182,0.032201
772.969840,0.879545,0.322717
773.003387,0.190909,0.073504
773.036934,0.270455,0.096978
773.070481,0.138636,0.050347
773.104028,0.047727,0.055426
773.137574,0.247727,0.166929
773.171120,-0.095455,0.077706
773.204666,0.122727,0.082165
773.238212,0.122727,0.147482
773.271757,-0.084091,0.119459
773.305302,0.259091,0.111271
773.338847,0.384091,0.040703
773.372391,0.229545,0.204984
773.405936,-0.002273,0.056625
773.439480,0.147727,0.112924
773.473024,0.186364,0.043182
773.506567,0.161364,0.058421
773.540110,0.015909,0.106425
773.573653,-0.047727,0.071681
773.607196,0.140909,0.051975
773.640739,0.190909,0.047997
773.674281,-0.120455,0.063748
773.707823,0.138636,0.067831
773.741365,0.365909,0.194723
773.774906,0.065909,0.110473
773.808447,0.047727,0.023918
773.841988,0.236364,0.104298
773.875529,0.197727,0.117760
773.909070,-0.309091,0.059959
773.942610,-0.118182,0.039886
773.976150,0.020455,0.075404
774.009689,0.043182,0.085484
774.043229,-0.311364,0.026186
774.076768,0.404545,0.144653
774.110307,-0.138636,0.050347
774.143845,0.025000,0.063260
774.177384,0.272727,0.238820
774.210922,0.202273,0.231112
774.244460,0.222727,0.139157
774.277997,0.284091,0.146705
774.311535,0.188636,0.030724
774.345072,0.238636,0.082471
774.378609,-0.109091,0.105773
774.412145,0.393182,0.267630
774.445682,0.079545,0.105400
774.479218,0.586364,0.380225
774.512754,0.315909,0.205688
774.546289,-0.165909,0.067142
774.579824,-0.404545,0.059829
774.613359,0.200000,0.149275
774.646894,0.177273,0.112517
774.680429,-0.025000,0.038753
774.713963,0.206818,0.122448
774.747497,0.140909,0.051975
774.781031,0.538636,0.308846
774.814564,-0.377273,0.080578
774.848097,-0.125000,0.072469
774.881630,0.438636,0.194085
774.915163,0.079545,0.122785
774.948696,-0.047727,0.023918
774.982228,0.000000,0.032141
775.015760,-0.025000,0.094878
775.049291,0.000000,0.047781
775.082823,-0.097727,0.035410
775.116354,0.095455,0.032221
775.149885,0.020455,0.039414
775.183416,-0.238636,0.024557
775.216946,-0.309091,0.072656
775.250476,0.213636,0.039430
775.284006,-0.045455,0.039365
775.317535,-0.234091,0.066368
775.351065,-0.143182,0.024133
775.384594,-0.170455,0.066290
775.418123,0.234091,0.105057
775.451651,-0.068182,0.068823
775.485180,-0.459091,0.080449
775.518708,0.027273,0.088198
775.552235,0.268182,0.125701
775.585763,-0.122727,0.082165
775.619290,0.122727,0.082165
775.652817,0.145455,0.100206
775.686344,0.009091,0.118792
775.719870,0.047727,0.055426
775.753397,0.090909,0.078730
775.786923,-0.077273,0.063433
775.820448,-0.115909,0.070225
775.853974,0.431818,0.108211
775.887499,0.568182,0.195547
775.921024,0.165909,0.083714
775.954549,-0.190909,0.073504
775.988073,0.025000,0.063260
776.021597,0.261364,0.109440
776.055121,-0.170455,0.043524
776.088645,-0.045455,0.052911
776.122168,-0.340909,0.092793
776.155691,0.270455,0.125983
776.189214,-0.140909,0.038098
776.222737,0.143182,0.132848
776.256259,-0.334091,0.055982
776.289781,0.277273,0.115059
776.323303,0.163636,0.079188
776.356824,-0.020455,0.071320
776.390346,0.109091,0.111526
776.423867,0.304545,0.095860
776.457387,-0.409091,0.075103
776.490908,0.120455,0.063748
776.524428,0.534091,0.277708
776.557948,0.343182,0.259338
776.591468,-0.004545,0.059396
776.624987,0.352273,0.176788
776.658506,0.047727,0.082282
776.692025,-0.025000,0.067831
776.725544,-0.170455,0.043524
776.759062,0.236364,0.036927
776.792581,0.231818,0.148738
776.826099,0.050000,0.043301
776.859616,0.188636,0.030724
776.893134,0.279545,0.131007
776.926651,0.397727,0.207264
776.960167,0.138636,0.152302
776.993684,0.065909,0.068588
777.027200,0.088636,0.088746
777.060716,0.118182,0.060473
777.094232,0.347727,0.217432
777.127748,-0.011364,0.121686
777.161263,0.297727,0.203669
777.194778,0.145455,0.145915
777.228293,0.263636,0.042882
777.261807,0.095455,0.102726
777.295322,0.243182,0.104515
777.328836,-0.313636,0.073750
777.362349,-0.004545,0.047727
777.395863,0.093182,0.032201
777.429376,0.131818,0.120283
777.462889,0.106818,0.174227
777.496401,-0.155303,0.066988
777.529914,0.186364,0.053831
777.563426,0.020455,0.050858
777.596938,0.359091,0.075344
777.630449,0.261364,0.088571
777.663961,0.190909,0.096531
777.697472,0.370455,0.241624
777.730983,-0.125000,0.168070
777.764493,0.425000,0.536608
777.798004,0.306818,0.132848
777.831514,-0.163636,0.057765
777.865023,0.265909,0.106667
777.898533,0.090909,0.065948
777.932042,0.081818,0.140909
777.965551,0.120455,0.068286
777.999060,-0.311364,0.041458
778.032568,0.229545,0.121771
778.066076,0.145455,0.109516
778.099584,-0.070455,0.038081
778.133092,0.081818,0.208348
778.166599,0.365909,0.157537
778.200107,0.190909,0.096531
778.233613,0.070455,0.062850
778.267120,-0.093182,0.032201
778.300626,0.363636,0.078467
778.334132,-0.047727,0.124788
778.367638,0.047727,0.023918
778.401144,0.025000,0.021651
778.434649,-0.122727,0.114022
778.468154,0.177273,0.117941
778.501659,0.097727,0.057619
778.535163,0.368182,0.183557
778.568668,0.545455,0.027835
778.602172,0.140909,0.040846
778.635675,-0.288636,0.077963
778.669179,0.347727,0.160975
778.702682,0.025000,0.021651
778.736185,0.365909,0.113653
778.769688,0.047727,0.023918
778.803190,-0.165909,0.062521
778.836692,0.195455,0.070820
778.870194,0.100000,0.114226
778.903696,0.229545,0.281990
778.937197,0.427273,0.196535
778.970698,0.540909,0.305756
779.004199,0.247727,0.249325
779.037699,0.045455,0.068182
779.071200,0.138636,0.084267
779.104700,0.070455,0.020423
779.138199,0.004545,0.067535
779.171699,-0.002273,0.056625
779.205198,0.168182,0.041969
779.238697,-0.045455,0.074273
779.272196,0.177273,0.132891
779.305694,-0.070455,0.098563
779.339192,-0.027273,0.039756
779.372690,0.409091,0.116287
779.406188,0.213636,0.112701
779.439685,0.218182,0.286634
779.473182,-0.136364,0.083258
779.506679,0.159091,0.088520
779.540176,-0.040909,0.085129
779.573672,-0.429545,0.056350
779.607168,0.379545,0.053433
779.640664,0.243182,0.058509
779.674160,-0.047727,0.124788
779.707655,0.347727,0.275523
779.741150,0.200000,0.159318
779.774644,0.168182,0.061867
779.808139,0.381818,0.048638
779.841633,0.170455,0.077631
779.875127,0.118182,0.088257
779.908621,0.143182,0.024133
779.942114,0.181818,0.224621
779.975607,0.306818,0.072469
780.009100,-0.102273,0.135732
780.042593,0.163636,0.035646
780.076085,0.368182,0.245297
780.109577,-0.043182,0.069337
780.143069,0.165909,0.019385
780.176560,0.050000,0.025000
780.210052,0.177273,0.155628
780.243543,-0.070455,0.054010
780.277033,0.095455,0.064323
780.310524,-0.281818,0.062902
780.344014,0.168182,0.081913
780.377504,1.075000,0.395067
780.410994,-0.211364,0.047822
780.444483,0.068182,0.068823
780.477972,0.575000,0.171388
780.511461,0.181818,0.131897
780.544950,-0.113636,0.074516
780.578438,-0.072727,0.073785
780.611926,0.140909,0.020455
780.645414,0.077273,0.123378
780.678902,-0.022727,0.073399
780.712389,0.584091,0.242285
780.745876,0.493182,0.180002
780.779363,0.561364,0.260649
780.812849,-0.052273,0.086744
780.846335,0.136364,0.178116
780.879821,-0.004545,0.067535
780.913307,0.534091,0.143141
780.946792,0.561364,0.214803
780.980277,0.118182,0.039886
781.013762,0.040909,0.070455
781.047247,0.425000,0.222713
781.080731,0.275000,0.210283
781.114215,0.459091,0.158815
781.147699,0.093182,0.032201
781.181183,-0.022727,0.060856
781.214666,-0.113636,0.082478
781.248149,0.186364,0.085129
781.281632,0.172727,0.096477
781.315114,0.143182,0.089902
781.348596,0.400000,0.214553
781.382078,0.388636,0.184788
781.415560,0.443182,0.161775
781.449041,-0.263636,0.042882
781.482522,0.004545,0.091164
781.516003,0.020455,0.039414
781.549484,0.047727,0.055426
781.582964,0.118182,0.039886
781.616444,0.406818,0.096497
781.649924,0.122727,0.114022
781.683404,-0.184091,0.086982
781.716883,-0.086364,0.104718
781.750362,0.165909,0.037534
781.783841,0.272727,0.210764
781.817319,-0.070455,0.020423
781.850797,0.236364,0.144493
781.884275,0.465909,0.140446
781.917753,0.538636,0.249615
781.951230,0.054545,0.087019
781.984707,-0.002273,0.033767
782.018184,0.381818,0.420633
782.051661,0.000000,0.032141
782.085137,0.275000,0.125407
782.118613,0.150000,0.082916
782.152089,0.311364,0.096014
782.185564,0.056818,0.131911
782.219040,0.125000,0.125901
782.252515,0.386364,0.074239
782.285989,0.536364,0.222843
782.319464,0.004545,0.120669
782.352938,0.125000,0.142309
782.386412,0.229545,0.171146
782.419885,-0.040909,0.099819
782.453359,-0.331818,0.015909
782.486832,0.588636,0.265926
782.520305,0.165909,0.037534
782.553777,0.079545,0.119199
782.587249,-0.354545,0.031655
782.620721,-0.786364,0.085854
782.654193,0.145455,0.042153
782.687665,0.590909,0.151610
782.721136,-0.100000,0.059440
782.754607,0.118182,0.039886
782.788077,0.190909,0.119659
782.821548,0.281818,0.083999
782.855018,-0.045455,0.042030
782.888488,0.234091,0.149115
782.921957,0.281818,0.110549
782.955427,-0.002273,0.116348
782.988896,0.252273,0.134317
783.022365,0.218182,0.072443
783.055833,0.272727,0.215610
783.089301,0.097727,0.035410
783.122769,-0.293182,0.138259
783.156237,0.238636,0.100842
783.189704,0.218182,0.043952
783.223172,0.152273,0.141106
783.256638,-0.102273,0.110566
783.290105,0.465909,0.270166
783.323571,-0.070455,0.038081
783.357037,0.238636,0.132925
783.390503,0.200000,0.211351
783.423969,0.252273,0.164530
783.457434,0.145455,0.044652
783.490899,-0.022727,0.040465
783.524364,0.220455,0.114197
783.557828,0.309091,0.039101
783.591292,0.445455,0.193542
783.624756,0.447727,0.333207
783.658220,0.068182,0.037689
783.691683,-0.168182,0.087049
783.725146,0.029545,0.070519
783.758609,0.147727,0.056442
783.792072,0.197727,0.079797
783.825534,0.209091,0.080930
783.858996,0.209091,0.125021
783.892458,0.393182,0.205085
783.925919,0.272727,0.182130
783.959381,0.161364,0.083343
783.992842,0.129545,0.232583
784.026302,0.272727,0.238820
784.059763,0.027273,0.053203
784.093223,0.122727,0.061783
784.126683,0.245455,0.106552
784.160142,0.288636,0.128500
784.193601,0.231818,0.098622
784.227060,0.220455,0.143322
784.260519,0.172727,0.079837
784.293978,0.302273,0.084512
784.327436,0.675000,0.276981
784.360894,0.215909,0.040449
784.394352,0.159091,0.113067
784.427809,0.047727,0.023918
784.461266,0.272727,0.222309
784.494723,0.218182,0.056408
784.528180,-0.125000,0.081968
784.561636,0.252273,0.171959
784.595092,0.136364,0.075378
784.628548,0.415909,0.195306
784.662003,0.118182,0.039886
784.695458,0.165909,0.037534
784.728913,0.140909,0.051975
784.762368,0.115909,0.049311
784.795823,0.140909,0.098569
784.829277,0.238636,0.114016
784.862731,-0.047727,0.051363
784.896184,0.027273,0.153775
784.929637,-0.263636,0.062490
784.963091,0.188636,0.084512
784.996543,0.300000,0.179358
785.029996,0.125000,0.112924
785.063448,0.684091,0.215259
785.096900,0.168182,0.074239
785.130352,0.304545,0.186820
785.163803,0.170455,0.129978
785.197254,0.290909,0.179646
785.230705,-0.111364,0.088629
785.264156,0.029545,0.080249
785.297606,-0.145455,0.075788
785.331056,0.104545,0.136685
785.364506,0.177273,0.126397
785.397955,0.068182,0.037689
785.431405,0.040909,0.078828
785.464854,-0.154545,0.181221
785.498302,0.109091,0.153573
785.531751,-0.095455,0.073399
785.565199,0.277273,0.270855
785.598647,-0.340909,0.092793
785.632094,-0.240909,0.079090
785.665542,0.356818,0.252291
785.698989,0.277273,0.152442
785.732436,0.163636,0.067726
785.765882,-0.193182,0.058685
785.799328,0.118182,0.039886
785.832774,0.020455,0.090475
785.866220,0.240909,0.046075
785.899665,-0.100000,0.069160
785.933111,0.068182,0.094174
785.966555,0.009091,0.159350
786.000000,0.125000,0.072469
786.033444,0.270455,0.156220
786.066888,0.256818,0.111636
786.100332,0.250000,0.176089
786.133776,0.509091,0.188595
786.167219,0.329545,0.219418
786.200662,0.193182,0.104613
786.234104,0.231818,0.122031
786.267547,-0.188636,0.058685
786.300989,0.286364,0.155495
786.334431,0.238636,0.024557
786.367872,0.436364,0.137758
786.401314,0.593182,0.157504
786.434755,-0.043182,0.052359
786.468196,0.165909,0.037534
786.501636,0.143182,0.071753
786.535076,-0.213636,0.039430
786.568516,0.118182,0.018464
786.601956,0.152273,0.111404
786.635395,0.186364,0.105651
786.668834,0.000000,0.032141
786.702273,-0.125000,0.088044
786.735712,0.186364,0.085129
786.769150,-0.075000,0.052458
786.802588,-0.475000,0.026963
786.836026,-0.072727,0.081502
786.869463,0.047727,0.082282
786.902900,0.263636,0.062490
786.936337,0.168182,0.134014
786.969774,0.104545,0.183529
787.003210,0.000000,0.095563
787.036646,0.393182,0.127004
787.070082,-0.072727,0.021076
787.103518,-0.186364,0.043182
787.136953,-0.163636,0.067726
787.170388,0.200000,0.126622
787.203823,0.193182,0.087041
787.237257,-0.120455,0.055052
787.270691,0.068182,0.112333
787.304125,0.381818,0.166918
787.337559,0.472727,0.179301
787.370992,-0.004545,0.219327
787.404425,-0.002273,0.103472
787.437858,-0.068182,0.037689
787.471290,0.120455,0.095204
787.504723,0.027273,0.053203
787.538155,0.047727,0.100688
787.571586,0.102273,0.089960
787.605018,-0.027273,0.081121
787.638449,0.397727,0.190160
787.671880,0.004545,0.047727
787.705310,0.220455,0.074438
787.738741,-0.050000,0.043301
787.772171,0.243182,0.058509
787.805600,0.159091,0.272130
787.839030,0.229545,0.121771
787.872459,0.002273,0.033767
787.905888,0.236364,0.051124
787.939317,0.102273,0.077631
787.972745,0.127273,0.105038
788.006173,0.413636,0.104915
788.039601,0.025000,0.067831
788.073028,-0.147727,0.072469
788.106456,0.490909,0.203989
788.139883,0.068182,0.051676
788.173309,0.422727,0.205440
788.206736,0.006818,0.114874
788.240162,0.645455,0.204116
788.273588,0.393182,0.130613
788.307013,0.193182,0.062272
788.340439,0.095455,0.047835
788.373864,0.050000,0.081597
788.407288,0.186364,0.200760
788.440713,0.202273,0.134086
788.474137,0.259091,0.136117
788.507561,0.211364,0.098929
788.540985,0.397727,0.177749
788.574408,0.245455,0.109563
788.607831,0.356818,0.066756
788.641254,0.095455,0.073399
788.674677,0.320455,0.264797
788.708099,-0.452273,0.066679
788.741521,0.263636,0.051526
788.774943,0.147727,0.075404
788.808364,0.845455,0.320398
788.841785,0.179545,0.127450
788.875206,0.152273,0.193419
788.908627,0.281818,0.110549
788.942047,0.368182,0.246494
788.975467,0.075000,0.052458
789.008887,0.250000,0.157344
789.042306,-0.065909,0.124373
789.075726,-0.095455,0.035428
789.109145,0.265909,0.067678
789.142563,0.250000,0.133821
789.175982,-0.088636,0.088746
789.209400,0.181818,0.197714
789.242817,0.190909,0.035646
789.276235,0.118182,0.039886
789.309652,0.052273,0.070884
789.343069,-0.168182,0.050769
789.376486,0.143182,0.055519
789.409902,-0.045455,0.052911
789.443319,0.445455,0.094147
789.476735,-0.065909,0.143069
789.510150,0.122727,0.089159
789.543565,0.265909,0.074922
789.576980,-0.027273,0.053203
789.610395,0.134091,0.107439
789.643810,0.138636,0.067831
789.677224,0.156818,0.120578
789.710638,-0.018182,0.076263
789.744052,0.393182,0.267630
789.777465,0.011364,0.238915
789.810878,0.031818,0.103178
789.844291,0.002273,0.056625
789.877703,0.300000,0.186502
789.911116,0.184091,0.071175
789.944528,0.236364,0.018182
789.977939,0.334091,0.055982
790.011351,-0.070455,0.067449
790.044762,0.165909,0.019385
790.078173,0.115909,0.049311
790.111583,0.288636,0.094932
790.144994,0.218182,0.114812
790.178404,-0.040909,0.070455
790.211813,-0.718182,0.040909
790.245223,0.031818,0.136307
790.278632,0.097727,0.061269
790.312041,0.140909,0.038098
790.345450,0.395455,0.210286
790.378858,0.143182,0.096337
790.412266,0.193182,0.062272
790.445674,0.218182,0.094857
790.479081,-0.143182,0.055519
790.512488,0.052273,0.107967
790.545895,0.077273,0.131681
790.579302,0.238636,0.096444
790.612708,0.477273,0.236112
790.646115,0.577273,0.365810
790.679520,1.081818,0.351473
790.712926,0.415909,0.215427
790.746331,0.097727,0.035410
790.779736,-0.072727,0.107901
790.813141,0.090909,0.057586
790.846545,0.243182,0.168592
790.879949,0.277273,0.215166
790.913353,0.002273,0.092953
790.946757,-0.068182,0.112563
790.980160,0.445455,0.170863
791.013563,0.397727,0.184648
791.046966,0.075000,0.064952
791.080368,0.195455,0.061364
791.113771,0.279545,0.244175
791.147173,0.638636,0.372926
791.180574,0.265909,0.097879
791.213976,0.231818,0.160851
791.247377,0.043182,0.069337
791.280777,0.370455,0.209075
791.314178,0.468182,0.453983
791.347578,0.002273,0.056625
791.380978,0.227273,0.148477
791.414378,-0.018182,0.070711
791.447777,-0.134091,0.116659
791.481176,0.372727,0.151132
791.514575,0.315909,0.076424
791.547973,0.272727,0.182130
791.581372,0.225000,0.128459
791.614770,0.200000,0.176162
791.648167,0.025000,0.021651
791.681565,0.365909,0.237723
791.714962,0.415909,0.170329
791.748359,0.165909,0.067142
791.781755,0.022727,0.107877
791.815152,0.052273,0.054391
791.848548,0.361364,0.117936
791.881943,0.181818,0.096424
791.915339,-0.022727,0.107877
791.948734,0.079545,0.092786
791.982129,0.029545,0.070519
792.015523,0.061364,0.167362
792.048918,0.045455,0.074273
792.082312,0.334091,0.119718
792.115705,0.215909,0.099502
792.149099,0.115909,0.070225
792.182492,0.170455,0.096925
792.215885,-0.284091,0.091440
792.249278,0.100000,0.061237
792.282670,0.354545,0.121032
792.316062,0.240909,0.100026
792.349454,0.238636,0.082471
792.382845,0.181818,0.131897
792.416236,0.284091,0.125531
792.449627,0.456818,0.059298
792.483018,1.072727,0.364261
792.516408,0.831818,0.292617
792.549798,0.668182,0.280025
792.583188,1.350000,0.246012
792.616578,0.522727,0.277859
792.649967,0.556818,0.110192
792.683356,0.650000,0.194408
792.716745,0.340909,0.162257
792.750133,0.140909,0.038098
792.783521,0.047727,0.145716
792.816909,0.240909,0.043658
792.850296,0.143182,0.024133
792.883684,-0.143182,0.051464
792.917071,0.700000,0.566935
792.950457,0.140909,0.020455
792.983844,0.061364,0.190784
793.017230,0.138636,0.084267
793.050616,0.265909,0.198948
793.084001,-0.020455,0.063667
793.117386,0.293182,0.183807
793.150771,0.009091,0.123064
793.184156,0.220455,0.074438
793.217541,0.145455,0.055017
793.250925,0.002273,0.033767
793.284309,0.211364,0.047822
793.317692,0.020455,0.050858
793.351075,0.372727,0.182442
793.384458,0.163636,0.050206
793.417841,0.113636,0.164722
793.451223,0.215909,0.024557
793.484606,0.540909,0.203012
793.517988,0.109091,0.136515
793.551369,0.268182,0.076500
793.584750,0.238636,0.051664
793.618131,-0.065909,0.060591
793.651512,0.000000,0.047781
793.684893,0.093182,0.121389
793.718273,0.247727,0.135275
793.751653,0.054545,0.087019
793.785032,0.311364,0.179484
793.818411,-0.031818,0.136117
793.851790,-0.165909,0.019385
793.885169,0.115909,0.089614
793.918548,-0.115909,0.037397
793.951926,0.093182,0.032201
793.985304,-0.070455,0.038081
794.018681,0.022727,0.117062
794.052059,0.179545,0.236852
794.085436,0.386364,0.096236
794.118812,0.313636,0.084397
794.152189,-0.020455,0.115546
794.185565,0.363636,0.090682
794.218941,0.215909,0.128981
794.252317,0.077273,0.101104
794.285692,-0.120455,0.063748
794.319067,0.338636,0.217646
794.352442,1.040909,0.249079
794.385816,3.190909,0.545956
794.419190,2.936364,0.393110
794.452564,2.561364,0.217717
794.485938,1.061364,0.249201
794.519311,0.020455,0.114829
794.552684,0.168182,0.041969
794.586057,-0.290909,0.110782
794.619429,0.477273,0.317166
794.652802,-0.002273,0.099190
794.686173,0.493182,0.156748
794.719545,1.131818,0.462214
794.752916,0.284091,0.352959
794.786287,0.354545,0.276825
794.819658,0.097727,0.196597
794.853029,0.454545,0.164235
794.886399,0.252273,0.107583
794.919769,0.156818,0.198324
794.953138,0.618182,0.128886
794.986508,-0.165909,0.083714
795.019877,0.131818,0.200760
795.053245,0.036364,0.150447
795.086614,0.165909,0.037534
795.119982,0.727273,0.150756
795.153350,0.302273,0.208085
795.186718,0.213636,0.118116
795.220085,0.172727,0.074551
795.253452,0.045455,0.039365
795.286819,0.281818,0.062902
795.320185,0.238636,0.100842
795.353551,0.222727,0.159723
795.386917,0.740909,0.420430
795.420283,0.222727,0.114519
795.453648,0.259091,0.092626
795.487013,0.045455,0.076803
795.520378,0.445455,0.347452
795.553742,0.193182,0.127976
795.587107,0.147727,0.088044
795.620471,-0.093182,0.092396
795.653834,0.561364,0.303601
795.687197,0.229545,0.254005
795.720560,-0.063636,0.101334
795.753923,0.281818,0.081692
795.787286,0.238636,0.051664
795.820648,0.377273,0.061448
795.854010,-0.077273,0.101104
795.887371,0.261364,0.110192
795.920733,0.022727,0.040465
795.954094,-0.113636,0.082478
795.987454,-0.090909,0.055670
796.020815,0.495455,0.349210
796.054175,0.368182,0.117018
796.087535,0.443182,0.103322
796.120894,0.064394,0.019562
796.154254,-0.221970,0.048643
796.187613,-0.093182,0.032201
796.220971,0.690909,0.264184
796.254330,2.395455,0.500470
796.287688,5.550000,0.508852
796.321046,6.681818,0.387698
796.354403,5.343182,0.641460
796.387761,1.504545,0.326744
796.421118,0.470455,0.356874
796.454474,0.395455,0.159593
796.487831,0.325000,0.229678
796.521187,-0.022727,0.088520
796.554543,0.350000,0.175000
796.587898,0.027273,0.039756
796.621254,0.213636,0.085854
796.654609,-0.002273,0.085666
796.687963,0.070455,0.109769
796.721318,-0.070455,0.088978
796.754672,-0.231818,0.160851
796.788026,0.413636,0.162448
796.821379,-0.084091,0.119459
796.854732,0.584091,0.240445
796.888085,0.220455,0.127044
796.921438,0.097727,0.099761
796.954790,0.072727,0.118705
796.988142,0.920455,0.340960
797.021494,0.197727,0.117760
797.054846,-0.002273,0.075540
797.088197,0.772727,0.137307
797.121548,0.268182,0.097991
797.154899,0.220455,0.139671
797.188249,0.240909,0.083102
797.221599,0.134091,0.116659
797.254949,0.815909,0.329355
797.288298,0.845455,0.287102
797.321648,0.529545,0.081842
797.354996,-0.200000,0.184413
797.388345,0.420455,0.203288
797.421693,0.336364,0.144957
797.455041,-0.061364,0.107150
797.488389,0.420455,0.173097
797.521737,0.000000,0.032141
797.555084,0.047727,0.023918
797.588431,-0.013636,0.212096
797.621777,-0.031818,0.096931
797.655124,-0.286364,0.077971
797.688470,0.481818,0.333294
797.721815,0.240909,0.056178
797.755161,-0.059091,0.158293
797.788506,0.411364,0.112328
797.821851,0.354545,0.121032
797.855196,0.436364,0.125803
797.888540,0.134091,0.206240
797.921884,0.495455,0.398363
797.955228,0.156818,0.104909
797.988571,0.145455,0.042153
798.021914,0.511364,0.171899
798.055257,-0.170455,0.161007
798.088599,0.438636,0.142961
798.121942,1.104545,0.348454
798.155284,4.150000,0.884237
798.188625,8.681818,1.370912
798.221967,10.075000,0.986784
798.255308,7.356818,0.602280
798.288649,2.400000,0.246064
798.321989,0.525000,0.195517
798.355329,0.075000,0.064952
798.388669,0.179545,0.149806
798.422009,0.245455,0.135108
798.455348,0.472727,0.124979
798.488687,-0.095455,0.095590
798.522026,0.579545,0.181203
798.555365,0.331818,0.134283
798.588703,-0.093182,0.032201
798.622041,0.031818,0.111038
798.655378,0.070455,0.020423
798.688716,0.565909,0.358088
798.722053,0.552273,0.061100
798.755389,0.522727,0.096236
798.788726,0.375000,0.293866
798.822062,0.186364,0.127131
798.855398,0.229545,0.134893
798.888733,0.340909,0.136420
798.922069,0.072727,0.081502
798.955404,0.156818,0.197802
798.988738,0.190909,0.102802
799.022073,0.709091,0.283445
799.055407,0.734091,0.337366
799.088741,0.229545,0.228075
799.122074,0.002273,0.056625
799.155408,-0.095455,0.002273
799.188741,0.520455,0.129660
799.222073,0.388636,0.363713
799.255406,0.006818,0.114874
799.288738,0.559091,0.134476
799.322069,0.236364,0.036927
799.355401,-0.059091,0.174231
799.388732,0.140909,0.108020
799.422063,0.865909,0.360603
799.455394,0.140909,0.080321
799.488724,0.327273,0.234499
799.522054,0.045455,0.108474
799.555384,0.579545,0.123832
799.588713,0.175000,0.107246
799.622042,-0.320455,0.209421
799.655371,-0.088636,0.088746
799.688700,-0.268182,0.088985
799.722028,0.327273,0.127799
799.755356,0.390909,0.238669
799.788684,0.127273,0.158636
799.822011,-0.165909,0.062521
799.855338,0.375000,0.264250
799.888665,0.079545,0.180489
799.921992,0.031818,0.136307
799.955318,0.063636,0.090568
799.988644,0.281818,0.175986
800.021969,2.320455,0.476703
800.055295,2.754545,0.146128
800.088620,14.102273,1.882003
800.121945,20.627273,1.158271
800.155269,20.697727,1.650198
800.188593,5.602273,0.242669
800.221917,0.384091,0.118547
800.255241,0.368182,0.242267
800.288564,0.820455,0.331575
800.321887,0.265909,0.055798
800.355210,0.729545,0.372483
800.388532,0.395455,0.292353
800.421854,0.206818,0.118154
800.455176,0.231818,0.184791
800.488498,0.786364,0.072834
800.521819,1.081818,0.444642
800.555140,-0.059091,0.261225
800.588461,0.604545,0.246996
800.621781,-0.065909,0.068588
800.655101,0.286364,0.293622
800.688421,0.150000,0.148842
800.721740,0.643182,0.272678
800.755060,0.281818,0.184273
800.788379,0.259091,0.090539
800.821697,0.188636,0.030724
800.855015,0.238636,0.096444
800.888334,-0.063636,0.090568
800.921651,0.070455,0.098563
800.954969,0.581818,0.229016
800.988286,0.361364,0.297933
801.021603,0.256818,0.186263
801.054919,0.343182,0.218238
801.088235,0.377273,0.146604
801.121551,0.279545,0.161135
801.154867,0.279545,0.231849
801.188183,0.400000,0.187497
801.221498,0.193182,0.058685
801.254812,0.250000,0.143614
801.288127,0.261364,0.335801
801.321441,0.343182,0.125819
801.354755,0.470455,0.179887
801.388069,0.556818,0.324760
801.421382,-0.634091,0.093728
801.454695,0.727273,0.156108
801.488008,0.581818,0.238539
801.521320,0.093182,0.074854
801.554632,0.220455,0.153754
801.587944,0.315909,0.115502
801.621256,0.493182,0.109864
801.654567,0.236364,0.161731
801.687878,0.431818,0.170121
801.721189,0.190909,0.141494
801.754499,0.322727,0.135775
801.787809,0.195455,0.154161
801.821119,0.270455,0.156220
801.854428,0.452273,0.366838
801.887737,0.340909,0.108211
801.921046,1.063636,0.239964
801.954355,3.529545,0.742235
801.987663,10.714394,0.997632
802.020971,35.315909,1.769126
802.054279,38.468182,0.970667
802.087586,20.827273,1.106265
802.120894,6.025000,1.022007
802.154200,0.822727,0.168381
802.187507,0.336364,0.047565
802.220813,0.531818,0.195758
802.254119,1.206818,0.319500
802.287425,-0.075000,0.101251
802.320730,0.697727,0.351816
802.354035,-0.206818,0.246994
802.387340,0.431818,0.124337
802.420644,0.372727,0.128806
802.453949,0.277273,0.160110
802.487252,0.225000,0.167239
802.520556,0.200000,0.124025
802.553859,0.281818,0.103951
802.587162,0.359091,0.063188
802.620465,0.170455,0.043524
802.653767,0.513636,0.223272
802.687069,0.225000,0.130771
802.720371,0.240909,0.076635
802.753673,0.590909,0.310059
802.786974,0.645455,0.185252
802.820275,0.363636,0.105382
802.853576,0.318182,0.116287
802.886876,0.238636,0.167331
802.920176,0.786364,0.323949
802.953476,0.365909,0.272772
802.986775,0.686364,0.209301
803.020074,0.934091,0.236350
803.053373,0.697727,0.284252
803.086672,0.293182,0.309631
803.119970,0.270455,0.091497
803.153268,0.888636,0.442013
803.186565,-0.121970,0.068788
803.219863,0.568182,0.235499
803.253160,1.052273,0.373425
803.286457,0.179545,0.211263
803.319753,0.372727,0.216876
803.353049,-0.140909,0.142893
803.386345,0.188636,0.102519
803.419641,0.359091,0.026013
803.452936,0.731818,0.308447
803.486231,0.184091,0.098143
803.519525,0.306818,0.319646
803.552820,0.911364,0.522395
803.586114,0.126515,0.017811
803.619408,0.486364,0.180120
803.652701,0.752273,0.156517
803.685994,0.272727,0.162750
803.719287,0.359091,0.155959
803.752580,0.388636,0.084145
803.785872,0.317424,0.017121
803.819164,0.302273,0.173603
803.852456,1.861364,0.674547
803.885747,5.381818,0.803479
803.919038,17.994697,0.627690
803.952329,51.813636,1.338536
803.985620,71.986364,1.386738
804.018910,25.770455,0.610898
804.052200,4.330303,0.299224
804.085489,1.588636,0.472939
804.118779,0.722727,0.115059
804.152068,0.127273,0.202566
804.185357,0.154545,0.217589
804.218645,0.447727,0.256956
804.251933,0.459091,0.158815
804.285221,0.121970,0.068788
804.318508,1.154545,0.500640
804.351796,0.781818,0.297857
804.385083,1.204545,0.304859
804.418369,0.220455,0.143322
804.451656,0.532576,0.202533
804.484942,-0.157576,0.036316
804.518227,0.248485,0.148547
804.551513,0.222727,0.167674
804.584798,0.659091,0.201274
804.618083,0.204545,0.288224
804.651367,1.279545,0.294638
804.684652,0.545455,0.337544
804.717936,-0.038636,0.191136
804.751219,0.854545,0.237410
804.784503,0.747727,0.235013
804.817786,0.523485,0.231841
804.851068,0.219697,0.047871
804.884351,0.652273,0.227418
804.917633,0.713636,0.214180
804.950915,0.643182,0.272678
804.984196,0.604545,0.313365
805.017478,0.681818,0.368588
805.050759,0.186364,0.064403
805.084039,0.788636,0.296735
805.117320,0.210606,0.154161
805.150600,0.718939,0.342266
805.183879,0.071212,0.105243
805.217159,0.195455,0.070820
805.250438,0.804545,0.385808
805.283717,0.184091,0.141289
805.316995,0.290909,0.072514
805.350274,0.501515,0.212623
805.383552,0.410606,0.071906
805.416829,-0.026515,0.070543
805.450107,0.650758,0.247196
805.483384,0.375000,0.095095
805.516660,0.699242,0.019206
805.549937,0.348485,0.035062
805.583213,0.453030,0.144558
805.616489,0.508333,0.144815
805.649764,1.812879,0.459541
805.683040,0.503788,0.127491
805.716315,0.312879,0.129114
805.749589,0.212879,0.329737
805.782864,1.658333,0.225349
805.816138,10.971970,0.989704
805.849411,46.905303,3.142342
805.882685,110.828788,4.873414
805.915958,158.770455,2.491206
805.949231,74.715909,3.367893
805.982504,15.200000,1.323840
806.015776,1.997727,0.103472
806.049048,0.334091,0.133042
806.082319,-0.159091,0.155029
806.115591,0.218182,0.167720
806.148862,0.231818,0.237095
806.182133,0.131818,0.201274
806.215403,0.490909,0.169954
806.248673,0.311364,0.203745
806.281943,-0.027273,0.123399
806.315213,0.197727,0.184592
806.348482,0.263636,0.274351
806.381751,0.759091,0.370817
806.415019,-0.170455,0.054106
806.448288,0.486364,0.246054
806.481556,0.118182,0.018464
806.514823,1.027273,0.252631
806.548091,0.861364,0.308980
806.581358,0.184091,0.106133
806.614625,0.104545,0.102877
806.647891,-0.022727,0.019682
806.681158,0.572727,0.264126
806.714424,0.188636,0.084512
806.747689,0.138636,0.067831
806.780955,0.493182,0.236765
806.814220,0.893182,0.459208
806.847484,0.511364,0.201451
806.880749,0.956818,0.085484
806.914013,0.481818,0.314820
806.947277,0.004545,0.149258
806.980540,0.072727,0.113318
807.013803,0.588636,0.241281
807.047066,0.227273,0.252692
807.080329,0.288636,0.038886
807.113591,0.404545,0.252293
807.146853,0.195455,0.130499
807.180115,-0.047727,0.023918
807.213376,0.427273,0.074620
807.246637,0.219697,0.073422
807.279898,0.418182,0.131465
807.313159,0.652273,0.223107
807.346419,0.122727,0.054782
807.379679,0.604545,0.207815
807.412938,0.663636,0.077540
807.446198,0.211364,0.047822
807.479457,1.054545,0.503172
807.512715,0.761364,0.463083
807.545974,0.490909,0.240329
807.579232,0.409091,0.116287
807.612490,0.163636,0.035646
807.645747,0.484091,0.211776
807.679004,0.672727,0.269239
807.712261,1.093182,0.115904
807.745518,8.138636,0.876609
807.778774,42.502273,1.687495
807.812030,150.396212,2.642620
807.845285,262.675758,7.591602
807.878541,218.100000,6.827329
807.911796,55.274242,1.072953
807.945051,9.636364,0.926398
807.978305,1.886364,0.465732
808.011559,0.493182,0.376236
808.044813,0.090909,0.197845
808.078066,0.670455,0.108253
808.111320,0.311364,0.099916
808.144573,0.815909,0.224307
808.177825,0.495455,0.141184
808.211078,0.272727,0.191881
808.244330,0.636364,0.305443
808.277581,1.518182,0.429996
808.310833,0.772727,0.119009
808.344084,0.602273,0.325538
808.377335,0.768182,0.206843
808.410585,0.897727,0.253353
808.443835,0.461364,0.288437
808.477085,0.338636,0.249739
808.510335,-0.009091,0.215178
808.543584,0.731818,0.387838
808.576833,0.404545,0.299112
808.610082,1.200000,0.371005
808.643330,0.693182,0.322861
808.676578,0.654545,0.305882
808.709826,0.365909,0.157537
808.743073,0.538636,0.423647
808.776320,0.647727,0.244978
808.809567,1.059091,0.376663
808.842814,0.384091,0.040703
808.876060,0.529545,0.352769
808.909306,0.365909,0.113653
808.942552,1.745455,0.371673
808.975797,0.477273,0.279120
809.009042,0.545455,0.288985
809.042287,0.852273,0.230396
809.075531,0.272727,0.215610
809.108775,-0.145455,0.145915
809.142019,1.029545,0.473921
809.175262,0.379545,0.125243
809.208506,0.784091,0.170087
809.241748,0.786364,0.245738
809.274991,1.493182,0.266256
809.308233,0.402273,0.375081
809.341475,0.800000,0.387072
809.374717,0.690909,0.072656
809.407958,1.615909,0.594016
809.441199,0.459091,0.321484
809.474440,0.145455,0.042153
809.507680,0.881818,0.568990
809.540921,0.777273,0.288296
809.574160,1.011364,0.246366
809.607400,0.522727,0.188445
809.640639,0.838636,0.362646
809.673878,2.713636,0.265831
809.707117,15.325000,1.386894
809.740355,60.278030,3.320187
809.773593,229.109091,6.486658
809.806831,371.118182,8.463570
809.840068,224.006061,3.472877
809.873305,52.195455,1.408744
809.906542,7.465152,0.525289
809.939778,3.109091,0.294649
809.973015,1.356818,0.311511
810.006250,1.086364,0.367332
810.039486,0.688636,0.026186
810.072721,1.063636,0.377601
810.105956,0.995455,0.234135
810.139191,0.975000,0.231492
810.172425,1.006818,0.336538
810.205659,1.065909,0.242179
810.238893,0.952273,0.255869
810.272126,2.450000,0.329138
810.305359,1.504545,0.360849
810.338592,1.045455,0.356043
810.371825,2.725000,0.596827
810.405057,2.419697,0.424412
810.438289,2.011364,0.333176
810.471520,2.020455,0.507896
810.504751,0.952273,0.145716
810.537982,1.184848,0.294146
810.571213,1.815909,0.341853
810.604443,1.115909,0.364875
810.637673,0.812121,0.265537
810.670903,0.597727,0.141873
810.704133,1.020455,0.331793
810.737362,0.620455,0.143825
810.770591,0.359091,0.052371
810.803819,-0.102273,0.170844
810.837047,0.863636,0.264634
810.870275,0.956818,0.309381
810.903503,0.850000,0.202502
810.936730,0.293182,0.241003
810.969957,0.990909,0.371200
811.003184,1.154545,0.258712
811.036410,0.916667,0.264715
811.069636,0.231061,0.123037
811.102862,1.488636,0.431631
811.136087,1.079545,0.466428
811.169312,0.436364,0.306220
811.202537,1.281818,0.509121
811.235762,1.022727,0.133357
811.268986,1.656818,0.211556
811.302210,0.536364,0.159610
811.335433,0.704545,0.193743
811.368656,0.436364,0.189715
811.401879,1.196212,0.309843
811.435102,1.570455,0.515217
811.468324,1.711364,0.565871
811.501546,1.968182,0.659244
811.534768,1.425000,0.548131
811.567990,0.606818,0.354828
811.601211,0.450000,0.135203
811.634432,0.993182,0.119977
811.667652,9.536364,0.296432
811.700872,36.601515,0.986033
811.734092,121.422727,3.121198
811.767312,215.165909,3.501146
811.800531,142.461364,2.428063
811.833750,32.386364,1.349925
811.866969,3.187879,0.147149
811.900187,1.052273,0.107967
811.933405,0.754545,0.295787
811.966623,1.022727,0.049533
811.999840,1.054545,0.163763
812.033057,0.563636,0.112815
812.066274,0.820455,0.354667
812.099490,0.950000,0.345731
812.132707,0.936364,0.352705
812.165923,0.226515,0.056197
812.199138,1.147727,0.425047
812.232353,1.152273,0.297951
812.265568,0.243182,0.089384
812.298783,0.806818,0.307169
812.331997,1.113636,0.554857
812.365211,0.459091,0.228666
812.398425,0.681818,0.243956
812.431638,1.195455,0.590371
812.464851,0.950000,0.213600
812.498064,0.400000,0.170166
812.531277,0.631818,0.346790
812.564489,0.413636,0.156818
812.597701,0.086364,0.121309
812.630912,0.850000,0.194700
812.664123,2.027273,0.596772
