#{
#    "background_file": "Backgrounds\\\\bg_785.995nm_13bin_219st_244en_10.0s_110g_4x_13_seq.txt",
#    "ccd_image_settings": [
#        1,
#        13,
#        1,
#        1600,
#        219,
#        244
#    ],
#    "ccd_temperature": "-87",
#    "cdRatios": {
#        "mean": 0.9628840325505839,
#        "std": 0.009559850233562183
#    },
#    "center_lambda": 786.0,
#    "comments": "",
#    "dark_region": 12.054531964639963,
#    "date": "10/22/20 17:03:24PM",
#    "eff_field": 1.5,
#    "exposure": 10.0,
#    "fel_lambda": "15.0",
#    "fel_pol": "H",
#    "fel_pulses": 42,
#    "fel_pyro_cal": "0.012",
#    "fel_reprate": "1.07",
#    "fel_transmission": "1.0",
#    "fel_transmission_fits": {
#        "A": 1.0,
#        "C": 0.0,
#        "Mu": 0.0
#    },
#    "fieldInt": {
#        "mean": 4536.066221590909,
#        "std": 470.74281175128004
#    },
#    "fieldStrength": {
#        "mean": 30.844179924242425,
#        "std": 1.6921246664778806
#    },
#    "fpTime": {
#        "mean": 0.939939788395424,
#        "std": 0.09959268845623755
#    },
#    "gain": 110,
#    "grating": 3,
#    "images_in_sequence": [
#        "hsg_820nm_c123_am45_HAna457.txt",
#        "hsg_820nm_c123_am45_HAna458.txt",
#        "hsg_820nm_c123_am45_HAna459.txt",
#        "hsg_820nm_c123_am45_HAna460.txt"
#    ],
#    "nir_lambda": "819.98",
#    "nir_pola": "-45",
#    "nir_polg": "0",
#    "nir_power": "100.0",
#    "pulseEnergies": {
#        "mean": 1.3618238636363635,
#        "std": 0.15029739149988625
#    },
#    "pyroVoltage": {
#        "mean": 0.11799281843948481,
#        "std": 0.013850878701787488
#    },
#    "rotatorAngle": 337.49999633788167,
#    "sample_Temp": "55",
#    "sample_name": "L001218.C1",
#    "series": "820_Fan",
#    "slits": "60",
#    "spec_step": "",
#    "window_trans": 0.92,
#    "y_max": 2,
#    "y_min": 1
#}
#
#
#
#
#
#
#
#
#
#
#
#
#
#
#
#
#
#
#
#
#
#
#
#
#
#
Wavelength,Signal,error
nm,arb. u.,arb.u.
Wavelength,820_Fan,error
759.194366,0.079545,0.105400
759.228015,-0.145455,0.042153
759.261663,0.063636,0.090568
759.295311,-0.093182,0.085060
759.328959,-0.027273,0.069976
759.362607,0.120455,0.039545
759.396254,-0.195455,0.090081
759.429901,-0.022727,0.107877
759.463548,0.054545,0.097064
759.497194,-0.261364,0.018568
759.530841,0.254545,0.116952
759.564487,0.097727,0.035410
759.598133,-0.168182,0.087049
759.631779,0.129545,0.168806
759.665424,0.515909,0.349784
759.699069,-0.145455,0.044652
759.732714,0.022727,0.040465
759.766359,0.345455,0.280145
759.800003,0.145455,0.027273
759.833648,0.477273,0.214854
759.867292,0.250000,0.315844
759.900935,0.088636,0.086266
759.934579,0.134091,0.146423
759.968222,-0.095455,0.035428
760.001865,-0.118182,0.039886
760.035508,0.377273,0.209004
760.069151,0.218182,0.056408
760.102793,0.143182,0.024133
760.136435,0.154545,0.174483
760.170077,-0.045455,0.068182
760.203718,-0.120455,0.055052
760.237360,-0.443182,0.103322
760.271001,0.138636,0.100174
760.304642,0.222727,0.165191
760.338283,-0.236364,0.039756
760.371923,-0.015909,0.162253
760.405563,0.195455,0.052273
760.439203,0.168182,0.108450
760.472843,0.143182,0.071753
760.506482,-0.100000,0.081439
760.540122,0.165909,0.109581
760.573761,0.213636,0.088052
760.607399,0.127273,0.158636
760.641038,0.059091,0.139676
760.674676,0.215909,0.140482
760.708314,0.120455,0.023038
760.741952,0.120455,0.089614
760.775589,-0.115909,0.037397
760.809227,-0.047727,0.023918
760.842864,0.029545,0.070519
760.876501,0.184091,0.236547
760.910137,0.113636,0.098412
760.943774,1.077273,0.640002
760.977410,-0.068182,0.037689
761.011046,0.052273,0.102266
761.044681,0.095455,0.032221
761.078317,0.490909,0.169954
761.111952,0.047727,0.055426
761.145587,-0.118182,0.039886
761.179221,0.300000,0.203101
761.212856,-0.525000,0.056807
761.246490,0.115909,0.074369
761.280124,0.311364,0.064952
761.313758,-0.015909,0.090703
761.347391,0.113636,0.068823
761.381024,0.331818,0.239436
761.414657,-0.188636,0.030724
761.448290,0.227273,0.237280
761.481923,0.063636,0.083382
761.515555,0.377273,0.196390
761.549187,-0.261364,0.037119
761.582819,-0.022727,0.088520
761.616450,-0.220455,0.083714
761.650082,-0.038636,0.162889
761.683713,-0.040909,0.085129
761.717344,-0.184091,0.117321
761.750974,-0.077273,0.101104
761.784605,-0.288636,0.038886
761.818235,0.243182,0.110098
761.851865,-0.100000,0.069160
761.885494,-0.452273,0.053045
761.919124,0.425000,0.339807
761.952753,0.002273,0.056625
761.986382,0.125000,0.072469
762.020010,0.520455,0.158028
762.053639,-0.265909,0.055798
762.087267,0.372727,0.086364
762.120895,0.022727,0.040465
762.154523,-0.240909,0.043658
762.188150,-0.213636,0.048692
762.221777,0.125000,0.091384
762.255404,0.040909,0.095373
762.289031,0.115909,0.142925
762.322658,0.138636,0.122195
762.356284,-0.031818,0.157246
762.389910,-0.302273,0.098195
762.423536,-0.118182,0.039886
762.457161,0.320455,0.264797
762.490786,0.320455,0.249491
762.524411,-0.068182,0.051676
762.558036,0.020455,0.075404
762.591661,0.200000,0.149275
762.625285,-0.622727,0.038636
762.658909,0.025000,0.038753
762.692533,0.090909,0.078730
762.726157,0.147727,0.156154
762.759780,-0.186364,0.055809
762.793403,0.745455,0.399793
762.827026,0.265909,0.117101
762.860649,0.072727,0.086662
762.894271,-0.029545,0.062768
762.927893,-0.052273,0.073881
762.961515,0.147727,0.112924
762.995137,0.020455,0.050858
763.028758,0.120455,0.023038
763.062379,0.081818,0.179330
763.096000,-0.043182,0.069337
763.129621,0.168182,0.041969
763.163241,0.056818,0.131911
763.196862,0.165909,0.098353
763.230481,0.240909,0.043658
763.264101,0.095455,0.106090
763.297721,0.004545,0.091164
763.331340,0.522727,0.273229
763.364959,0.470455,0.245673
763.398578,-0.100000,0.092375
763.432196,0.602273,0.144112
763.465814,0.645455,0.711316
763.499432,0.215909,0.090017
763.533050,0.093182,0.121389
763.566668,0.006818,0.075472
763.600285,0.047727,0.178243
763.633902,0.359091,0.043894
763.667519,0.356818,0.062106
763.701135,-0.170455,0.073671
763.734752,-0.120455,0.095204
763.768368,0.452273,0.156022
763.801984,-0.065909,0.101506
763.835599,0.145455,0.055017
763.869215,0.418182,0.131465
763.902830,-0.140909,0.040846
763.936444,-0.047727,0.055426
763.970059,0.004545,0.059396
764.003673,0.268182,0.125906
764.037288,0.190909,0.035646
764.070901,-0.238636,0.055705
764.104515,0.277273,0.264057
764.138128,0.047727,0.071681
764.171742,0.022727,0.113067
764.205354,-0.065909,0.068588
764.238967,0.293182,0.119242
764.272580,-0.186364,0.043182
764.306192,0.104545,0.108783
764.339804,0.000000,0.073364
764.373415,-0.070455,0.054010
764.407027,0.065909,0.124373
764.440638,0.027273,0.060388
764.474249,0.070455,0.038081
764.507860,-0.190909,0.110922
764.541470,0.565909,0.132770
764.575080,0.115909,0.094332
764.608690,-0.145455,0.069829
764.642300,-0.004545,0.320035
764.675909,-0.122727,0.061783
764.709519,0.195455,0.122538
764.743128,0.127273,0.197400
764.776736,0.240909,0.076635
764.810345,0.195455,0.184343
764.843953,-0.040909,0.099819
764.877561,0.093182,0.085060
764.911169,0.240909,0.123168
764.944776,0.429545,0.178532
764.978384,0.045455,0.121713
765.011991,0.029545,0.089845
765.045598,0.125000,0.064952
765.079204,0.150000,0.082916
765.112810,0.170455,0.073671
765.146416,0.036364,0.127475
765.180022,0.186364,0.043182
765.213628,0.100000,0.086603
765.247233,0.036364,0.157164
765.280838,0.413636,0.200477
765.314443,0.140909,0.080321
765.348048,-0.095455,0.047835
765.381652,-0.109091,0.149793
765.415256,-0.147727,0.056442
765.448860,-0.065909,0.136643
765.482463,-0.359091,0.043894
765.516067,0.615909,0.227054
765.549670,0.004545,0.057541
765.583273,-0.004545,0.057541
765.616875,0.000000,0.035355
765.650478,-0.190909,0.032461
765.684080,0.047727,0.096283
765.717682,0.102273,0.102921
765.751283,-0.095455,0.032221
765.784885,0.047727,0.051363
765.818486,0.302273,0.150460
765.852087,0.100000,0.069160
765.885687,-0.077273,0.123587
765.919288,-0.025000,0.063260
765.952888,-0.072727,0.021076
765.986488,0.102273,0.077631
766.020087,0.075000,0.064952
766.053687,-0.118182,0.018464
766.087286,0.204545,0.156092
766.120885,-0.095455,0.032221
766.154484,0.027273,0.060388
766.188082,0.120455,0.095204
766.221680,0.345455,0.163004
766.255278,0.054545,0.080866
766.288876,0.545455,0.337544
766.322473,0.120455,0.023038
766.356070,0.218182,0.083258
766.389667,-0.022727,0.019682
766.423264,-0.045455,0.074273
766.456860,0.236364,0.104298
766.490457,0.213636,0.017457
766.524053,0.072727,0.041161
766.557648,0.231818,0.116087
766.591244,0.559091,0.248664
766.624839,-0.047727,0.113880
766.658434,0.377273,0.325857
766.692029,0.284091,0.154992
766.725623,0.225000,0.197489
766.759217,0.000000,0.146727
766.792811,-0.311364,0.064952
766.826405,0.081818,0.195851
766.859999,0.668182,0.275619
766.893592,0.125000,0.125901
766.927185,0.247727,0.135275
766.960777,-0.056818,0.260292
766.994370,0.193182,0.037119
767.027962,-0.118182,0.088257
767.061554,-0.172727,0.108426
767.095146,0.327273,0.147745
767.128737,-0.063636,0.164172
767.162329,-0.256818,0.056259
767.195920,-0.086364,0.104718
767.229510,0.263636,0.042882
767.263101,-0.140909,0.051975
767.296691,-0.047727,0.023918
767.330281,-0.336364,0.045227
767.363871,-0.115909,0.049311
767.397460,0.134091,0.105400
767.431050,0.143182,0.051464
767.464639,0.090909,0.045455
767.498227,0.306818,0.072469
767.531816,0.147727,0.056442
767.565404,-0.500000,0.038836
767.598992,0.022727,0.088520
767.632580,0.068182,0.051676
767.666168,-0.022727,0.040465
767.699755,0.231818,0.122031
767.733342,0.247727,0.204933
767.766929,0.090909,0.140872
767.800515,0.047727,0.023918
767.834101,0.102273,0.077631
767.867687,-0.095455,0.106090
767.901273,0.050000,0.068973
767.934859,-0.388636,0.148246
767.968444,0.050000,0.081597
768.002029,0.500000,0.194182
768.035614,0.411364,0.301775
768.069198,0.000000,0.035355
768.102783,-0.640909,0.026013
768.136367,0.006818,0.101302
768.169950,-0.027273,0.053203
768.203534,0.118182,0.039886
768.237117,-0.029545,0.070519
768.270700,0.097727,0.057619
768.304283,0.197727,0.079797
768.337866,-0.238636,0.024557
768.371448,-0.304545,0.054687
768.405030,-0.236364,0.039756
768.438612,-0.027273,0.053203
768.472193,0.540909,0.217862
768.505775,0.088636,0.138109
768.539356,0.193182,0.087041
768.572936,0.202273,0.175821
768.606517,-0.031818,0.157246
768.640097,0.109091,0.205402
768.673677,-0.070455,0.020423
768.707257,-0.022727,0.040465
768.740836,-0.025000,0.021651
768.774416,0.370455,0.209075
768.807995,0.193182,0.077097
768.841574,0.265909,0.097879
768.875152,0.072727,0.061322
768.908730,-0.068182,0.068823
768.942308,0.009091,0.146269
768.975886,-0.088636,0.073320
769.009464,0.143182,0.096337
769.043041,-0.097727,0.086326
769.076618,0.318182,0.124855
769.110195,0.050000,0.040719
769.143771,0.170455,0.054106
769.177348,0.002273,0.075540
769.210924,-0.168182,0.022613
769.244499,0.118182,0.039886
769.278075,-0.002273,0.033767
769.311650,0.170455,0.043524
769.345225,0.215909,0.099502
769.378800,0.477273,0.254271
769.412375,0.147727,0.072469
769.445949,0.190909,0.345843
769.479523,0.095455,0.035428
769.513097,0.527273,0.295402
769.546670,0.240909,0.149673
769.580243,-0.284091,0.029348
769.613816,0.350000,0.192029
769.647389,-0.172727,0.133995
769.680962,0.025000,0.063260
769.714534,-0.120455,0.110286
769.748106,0.097727,0.057619
769.781678,0.213636,0.072834
769.815249,0.288636,0.338421
769.848820,-0.029545,0.151554
769.882391,0.288636,0.063341
769.915962,0.386364,0.124545
769.949533,0.045455,0.099066
769.983103,0.065909,0.101506
770.016673,-0.068182,0.037689
770.050243,-0.118182,0.018464
770.083812,-0.240909,0.106867
770.117381,0.065909,0.084878
770.150950,0.186364,0.043182
770.184519,0.015909,0.181715
770.218088,-0.190909,0.070857
770.251656,-0.090909,0.045455
770.285224,0.254545,0.331413
770.318791,-0.045455,0.080930
770.352359,0.218182,0.182159
770.385926,0.272727,0.276564
770.419493,0.097727,0.035410
770.453060,-0.179545,0.319807
770.486626,0.095455,0.032221
770.520192,-0.115909,0.074369
770.553758,-0.072727,0.041161
770.587324,0.097727,0.035410
770.620890,0.002273,0.103472
770.654455,0.113636,0.074516
770.688020,0.402273,0.132380
770.721584,0.265909,0.055798
770.755149,0.434091,0.277652
770.788713,0.045455,0.039365
770.822277,0.000000,0.000000
770.855841,-0.263636,0.119313
770.889404,0.136364,0.137645
770.922967,-0.220455,0.067142
770.956530,0.109091,0.174038
770.990093,-0.145455,0.069829
771.023655,0.075000,0.064952
771.057217,0.420455,0.142236
771.090779,0.027273,0.053203
771.124341,-0.402273,0.045041
771.157902,0.070455,0.020423
771.191463,0.531818,0.176645
771.225024,0.147727,0.056442
771.258585,-0.045455,0.039365
771.292145,0.184091,0.182283
771.325705,0.370455,0.123373
771.359265,0.154545,0.155545
771.392825,0.113636,0.121181
771.426384,-0.047727,0.055426
771.459943,-0.050000,0.053926
771.493502,0.022727,0.081153
771.527061,0.050000,0.081597
771.560619,-0.334091,0.025180
771.594177,0.093182,0.059472
771.627735,0.100000,0.107853
771.661293,0.170455,0.066290
771.694850,-0.168182,0.041969
771.728407,0.200000,0.213031
771.761964,0.120455,0.039545
771.795521,0.006818,0.114874
771.829077,-0.050000,0.053926
771.862633,0.127273,0.197400
771.896189,0.029545,0.170117
771.929744,-0.125000,0.088044
771.963300,0.252273,0.190703
771.996855,0.097727,0.035410
772.030409,0.170455,0.296909
772.063964,0.231818,0.098622
772.097518,0.306818,0.463083
772.131072,-0.093182,0.059472
772.164626,0.020455,0.090475
772.198180,0.077273,0.094993
772.231733,0.022727,0.040465
772.265286,-0.165909,0.037534
772.298839,-0.220455,0.204201
772.332391,0.263636,0.062490
772.365943,0.375000,0.066910
772.399495,0.761364,0.267958
772.433047,-0.093182,0.115904
772.466598,-0.104545,0.102877
772.500150,0.181818,0.102701
772.533701,0.118182,0.073082
772.567251,0.109091,0.169070
772.600802,0.002273,0.033767
772.634352,0.334091,0.025180
772.667902,0.072727,0.041161
772.701452,-0.236364,0.051124
772.735001,-0.138636,0.050347
772.768550,0.190909,0.032461
772.802099,-0.209091,0.128645
772.835648,-0.052273,0.073881
772.869196,0.050000,0.043301
772.902744,-0.143182,0.024133
772.936292,0.252273,0.171959
772.969840,0.195455,0.070820
773.003387,0.334091,0.025180
773.036934,0.143182,0.024133
773.070481,0.095455,0.047835
773.104028,-0.095455,0.064323
773.137574,0.275000,0.210283
773.171120,-0.231818,0.101868
773.204666,0.315909,0.091327
773.238212,0.225000,0.257879
773.271757,-0.047727,0.023918
773.305302,0.218182,0.063229
773.338847,0.295455,0.209745
773.372391,0.118182,0.088257
773.405936,0.025000,0.094878
773.439480,0.411364,0.386462
773.473024,0.197727,0.126228
773.506567,0.297727,0.137772
773.540110,0.004545,0.057541
773.573653,0.202273,0.175821
773.607196,0.097727,0.035410
773.640739,-0.020455,0.050858
773.674281,-0.238636,0.055705
773.707823,0.145455,0.055017
773.741365,0.529545,0.350006
773.774906,0.152273,0.128620
773.808447,0.281818,0.165831
773.841988,0.093182,0.032201
773.875529,0.206818,0.186513
773.909070,-0.356818,0.018003
773.942610,-0.070455,0.020423
773.976150,0.197727,0.177109
774.009689,-0.113636,0.068823
774.043229,-0.227273,0.113636
774.076768,0.320455,0.196177
774.110307,-0.070455,0.083960
774.143845,0.095455,0.032221
774.177384,-0.118182,0.039886
774.210922,0.070455,0.067449
774.244460,0.070455,0.020423
774.277997,0.263636,0.082384
774.311535,0.290909,0.094912
774.345072,-0.045455,0.052911
774.378609,-0.252273,0.190865
774.412145,0.261364,0.161775
774.445682,-0.100000,0.069160
774.479218,-0.118182,0.049061
774.512754,0.025000,0.038753
774.546289,-0.115909,0.074369
774.579824,-0.086364,0.098569
774.613359,-0.238636,0.024557
774.646894,0.084091,0.119459
774.680429,-0.090909,0.045455
774.713963,0.193182,0.037119
774.747497,0.155303,0.049206
774.781031,0.170455,0.043524
774.814564,-0.147727,0.072469
774.848097,-0.045455,0.068182
774.881630,0.311364,0.069411
774.915163,-0.025000,0.021651
774.948696,-0.015909,0.084817
774.982228,0.043182,0.085484
775.015760,-0.097727,0.035410
775.049291,-0.025000,0.021651
775.082823,0.002273,0.103472
775.116354,0.113636,0.082478
775.149885,0.106818,0.237679
775.183416,0.022727,0.118466
775.216946,-0.256818,0.108158
775.250476,-0.004545,0.080063
775.284006,0.195455,0.093624
775.317535,-0.018182,0.187083
775.351065,0.163636,0.331491
775.384594,-0.265909,0.136416
775.418123,0.027273,0.088198
775.451651,-0.095455,0.035428
775.485180,-0.475000,0.052850
775.518708,-0.020455,0.063667
775.552235,0.109091,0.157590
775.585763,-0.100000,0.069160
775.619290,0.254545,0.111480
775.652817,0.295455,0.160754
775.686344,0.347727,0.250956
775.719870,0.047727,0.023918
775.753397,0.218182,0.259986
775.786923,-0.261364,0.018568
775.820448,0.027273,0.069976
775.853974,0.431818,0.174527
775.887499,0.190909,0.004545
775.921024,0.322727,0.195521
775.954549,-0.313636,0.084397
775.988073,0.138636,0.241923
776.021597,-0.093182,0.115904
776.055121,-0.120455,0.055052
776.088645,0.115909,0.103422
776.122168,-0.118182,0.107661
776.155691,0.188636,0.030724
776.189214,-0.234091,0.131676
776.222737,0.275000,0.216145
776.256259,-0.286364,0.036007
776.289781,0.220455,0.089672
776.323303,0.004545,0.057541
776.356824,0.250000,0.157344
776.390346,0.138636,0.122195
776.423867,0.140909,0.097727
776.457387,-0.288636,0.038886
776.490908,0.597727,0.303022
776.524428,-0.040909,0.095373
776.557948,-0.218182,0.056408
776.591468,0.193182,0.168653
776.624987,0.020455,0.039414
776.658506,0.052273,0.054391
776.692025,-0.220455,0.067142
776.725544,-0.115909,0.062438
776.759062,0.168182,0.061867
776.792581,-0.047727,0.071681
776.826099,0.218182,0.063229
776.859616,0.361364,0.094387
776.893134,0.075000,0.041458
776.926651,0.100000,0.069160
776.960167,0.000000,0.102701
776.993684,0.072727,0.073785
777.027200,0.209091,0.120133
777.060716,0.197727,0.145823
777.094232,0.318182,0.174897
777.127748,0.143182,0.124829
777.161263,0.397727,0.242200
777.194778,-0.029545,0.062768
777.228293,0.327273,0.071293
777.261807,0.381818,0.128886
777.295322,0.238636,0.024557
777.328836,0.006818,0.139264
777.362349,-0.168182,0.022613
777.395863,0.147727,0.075404
777.429376,-0.211364,0.069188
777.462889,-0.070455,0.067449
777.496401,-0.025000,0.021651
777.529914,0.215909,0.024557
777.563426,0.138636,0.050347
777.596938,0.190909,0.047997
777.630449,0.265909,0.055798
777.663961,-0.022727,0.049533
777.697472,0.004545,0.057541
777.730983,0.102273,0.222991
777.764493,-0.165909,0.037534
777.798004,0.290909,0.151576
777.831514,-0.254545,0.091079
777.865023,0.347727,0.339822
777.898533,0.000000,0.000000
777.932042,0.163636,0.067726
777.965551,0.118182,0.060473
777.999060,-0.334091,0.072112
778.032568,0.088636,0.073320
778.066076,0.104545,0.122200
778.099584,0.145455,0.147570
778.133092,0.288636,0.123331
778.166599,0.386364,0.152408
778.200107,-0.050000,0.099612
778.233613,0.043182,0.069337
778.267120,-0.095455,0.073399
778.300626,0.236364,0.075583
778.334132,-0.161364,0.066679
778.367638,-0.052273,0.073881
778.401144,0.359091,0.075344
778.434649,-0.020455,0.050858
778.468154,0.002273,0.033767
778.501659,-0.072727,0.073785
778.535163,0.431818,0.148981
778.568668,0.263636,0.087493
778.602172,-0.025000,0.067831
778.635675,-0.409091,0.048212
778.669179,0.218182,0.139213
778.702682,-0.020455,0.050858
778.736185,0.100000,0.129605
778.769688,0.306818,0.046396
778.803190,0.156818,0.148525
778.836692,0.277273,0.130973
778.870194,0.002273,0.033767
778.903696,0.347727,0.224676
778.937197,0.052273,0.102266
778.970698,0.120455,0.039545
779.004199,-0.022727,0.019682
779.037699,-0.022727,0.019682
779.071200,0.115909,0.070225
779.104700,-0.075000,0.041458
779.138199,0.115909,0.049311
779.171699,0.179545,0.161679
779.205198,0.238636,0.082471
779.238697,0.147727,0.056442
779.272196,0.231818,0.116797
779.305694,-0.113636,0.092123
779.339192,-0.120455,0.039545
779.372690,0.175000,0.089268
779.406188,-0.025000,0.063260
779.439685,0.084091,0.254533
779.473182,-0.115909,0.049311
779.506679,0.245455,0.083691
779.540176,-0.140909,0.020455
779.573672,-0.029545,0.102821
779.607168,0.200000,0.106066
779.640664,0.284091,0.057977
779.674160,-0.004545,0.057541
779.707655,0.313636,0.073750
779.741150,0.047727,0.051363
779.774644,0.025000,0.038753
779.808139,0.243182,0.098090
779.841633,0.413636,0.149189
779.875127,0.236364,0.075583
779.908621,0.165909,0.019385
779.942114,-0.288636,0.063341
779.975607,0.097727,0.086326
780.009100,-0.259091,0.056545
780.042593,0.064394,0.049485
780.076085,-0.354545,0.031655
780.109577,-0.070455,0.038081
780.143069,0.077273,0.094993
780.176560,-0.068182,0.051676
780.210052,-0.140909,0.020455
780.243543,0.072727,0.108140
780.277033,0.270455,0.263879
780.310524,-0.100000,0.171978
780.344014,0.127273,0.121586
780.377504,0.063636,0.166174
780.410994,0.063636,0.197975
780.444483,0.045455,0.068182
780.477972,0.145455,0.042153
780.511461,0.068182,0.037689
780.544950,-0.075000,0.064952
780.578438,0.293182,0.096014
780.611926,0.090909,0.089995
780.645414,0.020455,0.090475
780.678902,0.070455,0.054010
780.712389,0.284091,0.125942
780.745876,0.459091,0.101104
780.779363,0.220455,0.256655
780.812849,-0.068182,0.051676
780.846335,-0.027273,0.122052
780.879821,-0.022727,0.060856
780.913307,0.047727,0.096283
780.946792,0.165909,0.083714
780.980277,-0.022727,0.073399
781.013762,-0.054545,0.097064
781.047247,0.022727,0.040465
781.080731,-0.022727,0.019682
781.114215,0.120455,0.068286
781.147699,0.334091,0.025180
781.181183,0.470455,0.226553
781.214666,-0.115909,0.070225
781.248149,0.509091,0.222959
781.281632,-0.095455,0.047835
781.315114,-0.097727,0.035410
781.348596,0.093182,0.032201
781.382078,0.093182,0.032201
781.415560,0.122727,0.054782
781.449041,-0.147727,0.109014
781.482522,0.047727,0.071681
781.516003,-0.070455,0.054010
781.549484,0.293182,0.147373
781.582964,0.140909,0.038098
781.616444,0.168182,0.050769
781.649924,0.122727,0.054782
781.683404,0.093182,0.055705
781.716883,-0.143182,0.096337
781.750362,0.215909,0.040449
781.783841,0.304545,0.102172
781.817319,0.009091,0.115082
781.850797,0.050000,0.040719
781.884275,0.227273,0.197112
781.917753,0.275000,0.142309
781.951230,-0.093182,0.059472
781.984707,0.227273,0.179358
782.018184,0.190909,0.175633
782.051661,-0.018182,0.093541
782.085137,0.136364,0.100155
782.118613,0.147727,0.056442
782.152089,0.652273,0.233248
782.185564,-0.072727,0.050103
782.219040,0.093182,0.085060
782.252515,0.193182,0.100380
782.285989,0.284091,0.084022
782.319464,-0.050000,0.068973
782.352938,0.347727,0.220029
782.386412,0.170455,0.102115
782.419885,-0.238636,0.024557
782.453359,-0.261364,0.037119
782.486832,0.238636,0.024557
782.520305,0.118182,0.039886
782.553777,0.004545,0.067535
782.587249,-0.175000,0.191163
782.620721,-0.434091,0.137209
782.654193,0.290909,0.131426
782.687665,0.190909,0.070857
782.721136,0.140909,0.051975
782.754607,0.029545,0.070519
782.788077,-0.086364,0.099664
782.821548,0.031818,0.085613
782.855018,-0.163636,0.086423
782.888488,0.215909,0.024557
782.921957,0.600000,0.325754
782.955427,-0.084091,0.137922
782.988896,-0.172727,0.065634
783.022365,0.150000,0.081597
783.055833,0.115909,0.037397
783.089301,-0.118182,0.018464
783.122769,-0.277273,0.100695
783.156237,0.052273,0.070884
783.189704,0.629545,0.214971
783.223172,0.425000,0.267398
783.256638,0.106818,0.141143
783.290105,0.227273,0.254525
783.323571,0.029545,0.062768
783.357037,0.100000,0.061237
783.390503,-0.052273,0.070884
783.423969,0.022727,0.040465
783.457434,0.259091,0.033633
783.490899,0.077273,0.072621
783.524364,-0.143182,0.024133
783.557828,0.320455,0.130454
783.591292,0.575000,0.359369
783.624756,-0.143182,0.055519
783.658220,0.093182,0.098668
783.691683,-0.018182,0.173056
783.725146,-0.072727,0.050103
783.758609,0.050000,0.053926
783.792072,0.097727,0.035410
783.825534,0.345455,0.244865
783.858996,0.200000,0.110829
783.892458,0.165909,0.019385
783.925919,-0.186364,0.053831
783.959381,-0.186364,0.082853
783.992842,-0.165909,0.062521
784.026302,0.047727,0.023918
784.059763,-0.100000,0.086603
784.093223,0.079545,0.087041
784.126683,0.338636,0.075745
784.160142,0.763636,0.172128
784.193601,0.175000,0.192616
784.227060,0.295455,0.160754
784.260519,0.052273,0.070884
784.293978,-0.122727,0.071184
784.327436,0.186364,0.064403
784.360894,0.443182,0.183497
784.394352,0.204545,0.190733
784.427809,-0.065909,0.068588
784.461266,0.170455,0.092340
784.494723,0.136364,0.075378
784.528180,0.288636,0.363443
784.561636,-0.047727,0.051363
784.595092,0.102273,0.145006
784.628548,0.190909,0.004545
784.662003,0.575000,0.359369
784.695458,0.143182,0.024133
784.728913,-0.038636,0.097297
784.762368,0.120455,0.063748
784.795823,0.195455,0.052273
784.829277,0.168182,0.143218
784.862731,0.077273,0.094993
784.896184,-0.045455,0.052911
784.929637,-0.240909,0.029545
784.963091,0.277273,0.100695
784.996543,0.354545,0.135642
785.029996,0.318182,0.108806
785.063448,0.486364,0.255730
785.096900,0.322727,0.225482
785.130352,-0.002273,0.033767
785.163803,0.129545,0.196203
785.197254,0.202273,0.181601
785.230705,-0.090909,0.084060
785.264156,0.136364,0.118094
785.297606,0.329545,0.174109
785.331056,0.068182,0.037689
785.364506,0.075000,0.052458
785.397955,0.140909,0.051975
785.431405,0.204545,0.156092
785.464854,-0.454545,0.027835
785.498302,0.159091,0.137777
785.531751,0.222727,0.209325
785.565199,0.002273,0.085666
785.598647,-0.336364,0.071726
785.632094,-0.140909,0.020455
785.665542,0.393182,0.179052
785.698989,-0.140909,0.051975
785.732436,-0.015909,0.090703
785.765882,-0.015909,0.090703
785.799328,0.170455,0.066290
785.832774,0.122727,0.089159
785.866220,0.170455,0.043524
785.899665,-0.170455,0.077631
785.933111,0.068182,0.059047
785.966555,-0.404545,0.072549
786.000000,0.200000,0.176162
786.033444,0.100000,0.107853
786.066888,0.143182,0.051464
786.100332,0.025000,0.084267
786.133776,0.097727,0.122279
786.167219,0.075000,0.052458
786.200662,0.004545,0.067535
786.234104,0.252273,0.121133
786.267547,-0.195455,0.063107
786.300989,0.236364,0.036927
786.334431,0.138636,0.084267
786.367872,0.268182,0.299181
786.401314,0.097727,0.076289
786.434755,-0.147727,0.072469
786.468196,0.095455,0.119594
786.501636,0.168182,0.050769
786.535076,-0.090909,0.065948
786.568516,0.186364,0.064403
786.601956,0.179545,0.117233
786.635395,0.259091,0.056545
786.668834,0.002273,0.033767
786.702273,0.259091,0.246745
786.735712,0.120455,0.023038
786.769150,0.002273,0.085666
786.802588,-0.447727,0.105987
786.836026,-0.084091,0.119459
786.869463,0.115909,0.062438
786.902900,0.220455,0.114197
786.936337,0.152273,0.111404
786.969774,0.584091,0.197253
787.003210,0.088636,0.320871
787.036646,0.118182,0.060473
787.070082,-0.093182,0.055705
787.103518,-0.215909,0.130889
787.136953,-0.102273,0.077631
787.170388,0.118182,0.039886
787.203823,0.218182,0.083258
787.237257,0.038636,0.134778
787.270691,-0.209091,0.056864
787.304125,0.420455,0.256896
787.337559,0.143182,0.082345
787.370992,-0.340909,0.129904
787.404425,0.279545,0.096604
787.437858,0.322727,0.238593
787.471290,-0.265909,0.078820
787.504723,-0.072727,0.088840
787.538155,0.027273,0.039756
787.571586,0.097727,0.093562
787.605018,-0.143182,0.051464
787.638449,0.170455,0.066290
787.671880,0.047727,0.023918
787.705310,-0.022727,0.040465
787.738741,-0.122727,0.071184
787.772171,0.243182,0.058509
787.805600,-0.236364,0.066804
787.839030,0.050000,0.040719
787.872459,0.325000,0.169965
787.905888,0.147727,0.056442
787.939317,0.259091,0.033633
787.972745,-0.029545,0.086446
788.006173,0.188636,0.084512
788.039601,-0.065909,0.068588
788.073028,-0.145455,0.044652
788.106456,0.350000,0.291999
788.139883,0.122727,0.071184
788.173309,0.218182,0.056408
788.206736,0.111364,0.101760
788.240162,0.563636,0.242000
788.273588,0.025000,0.021651
788.307013,0.220455,0.074438
788.340439,0.095455,0.032221
788.373864,0.236364,0.134572
788.407288,0.095455,0.035428
788.440713,0.668182,0.386370
788.474137,0.236364,0.039756
788.507561,0.256818,0.064793
788.540985,0.059091,0.143326
788.574408,0.190909,0.070857
788.607831,0.286364,0.095806
788.641254,0.302273,0.121005
788.674677,-0.118182,0.073082
788.708099,-0.313636,0.160529
788.741521,0.502273,0.100893
788.774943,0.738636,0.357120
788.808364,0.095455,0.124046
788.841785,0.565909,0.299489
788.875206,0.156818,0.109722
788.908627,0.050000,0.025000
788.942047,0.072727,0.086662
788.975467,0.368182,0.209301
789.008887,-0.120455,0.039545
789.042306,-0.065909,0.060591
789.075726,0.097727,0.061269
789.109145,0.047727,0.051363
789.142563,0.193182,0.058685
789.175982,-0.059091,0.224402
789.209400,0.045455,0.130558
789.242817,0.120455,0.023038
789.276235,-0.002273,0.033767
789.309652,0.127273,0.094694
789.343069,-0.168182,0.022613
789.376486,0.570455,0.242562
789.409902,-0.065909,0.068588
789.443319,0.338636,0.136643
789.476735,-0.050000,0.043301
789.510150,0.209091,0.103353
789.543565,0.134091,0.123456
789.576980,-0.211364,0.035410
789.610395,0.127273,0.234058
789.643810,0.570455,0.227077
789.677224,-0.131818,0.157114
789.710638,-0.050000,0.075000
789.744052,-0.045455,0.052911
789.777465,0.068182,0.112563
789.810878,-0.075000,0.041458
789.844291,0.113636,0.144510
789.877703,0.165909,0.037534
789.911116,0.293182,0.119242
789.944528,0.097727,0.057619
789.977939,0.352273,0.164184
790.011351,-0.047727,0.051363
790.044762,0.365909,0.293039
790.078173,0.070455,0.062850
790.111583,0.143182,0.024133
790.144994,0.268182,0.097991
790.178404,0.129545,0.128821
790.211813,-0.663636,0.045227
790.245223,0.052273,0.073881
790.278632,0.163636,0.116907
790.312041,-0.050000,0.040719
790.345450,0.025000,0.038753
790.378858,0.195455,0.061364
790.412266,0.438636,0.196991
790.445674,0.154545,0.169863
790.479081,-0.029545,0.086446
790.512488,0.590909,0.490972
790.545895,0.088636,0.073320
790.579302,0.070455,0.062850
790.612708,0.240909,0.083102
790.646115,0.472727,0.295699
790.679520,0.979545,0.330139
790.712926,0.259848,0.075972
790.746331,0.186364,0.055809
790.779736,-0.031818,0.136117
790.813141,0.109091,0.265121
790.846545,0.143182,0.051464
790.879949,-0.106818,0.170451
790.913353,0.115909,0.142925
790.946757,0.170455,0.092340
790.980160,0.152273,0.101709
791.013563,0.168182,0.087049
791.046966,0.068182,0.037689
791.080368,0.365909,0.282521
791.113771,0.031818,0.111038
791.147173,-0.029545,0.086446
791.180574,0.072727,0.061322
791.213976,0.570455,0.366260
791.247377,0.084091,0.237745
791.280777,0.188636,0.084512
791.314178,0.004545,0.085311
791.347578,0.070455,0.130177
791.380978,0.002273,0.060334
791.414378,-0.025000,0.038753
791.447777,-0.222727,0.143218
791.481176,0.247727,0.224422
791.514575,0.245455,0.084977
791.547973,0.122727,0.054782
791.581372,0.004545,0.067535
791.614770,0.145455,0.027273
791.648167,0.072727,0.086662
791.681565,0.145455,0.042153
791.714962,0.577273,0.331997
791.748359,0.100000,0.059440
791.781755,0.000000,0.096424
791.815152,0.118182,0.060473
791.848548,0.286364,0.071039
791.881943,0.072727,0.073785
791.915339,-0.193182,0.037119
791.948734,0.536364,0.203736
791.982129,-0.075000,0.064952
792.015523,0.125000,0.081968
792.048918,0.250000,0.218879
792.082312,-0.140909,0.051975
792.115705,0.640909,0.446537
792.149099,0.065909,0.113880
792.182492,0.240909,0.046075
792.215885,0.104545,0.174882
792.249278,0.100000,0.092375
792.282670,0.113636,0.159367
792.316062,0.118182,0.060473
792.349454,0.090909,0.105822
792.382845,0.000000,0.047781
792.416236,0.002273,0.056625
792.449627,0.165909,0.053626
792.483018,0.550000,0.135203
792.516408,0.532576,0.100140
792.549798,0.959091,0.299819
792.583188,0.417424,0.059905
792.616578,0.086364,0.189865
792.649967,0.247727,0.103920
792.683356,0.147727,0.072469
792.716745,0.322727,0.229770
792.750133,0.195455,0.093624
792.783521,-0.027273,0.081121
792.816909,0.543182,0.162825
792.850296,0.238636,0.090017
792.883684,0.081818,0.115798
792.917071,0.156818,0.192509
792.950457,0.261364,0.066910
792.983844,-0.104545,0.108783
793.017230,0.097727,0.057619
793.050616,0.050000,0.043301
793.084001,-0.020455,0.100432
793.117386,0.147727,0.056442
793.150771,0.288636,0.077963
793.184156,0.177273,0.212266
793.217541,0.190909,0.032461
793.250925,0.106818,0.174227
793.284309,0.527273,0.149517
793.317692,0.036364,0.152527
793.351075,0.252273,0.164530
793.384458,0.147727,0.056442
793.417841,-0.068182,0.051676
793.451223,0.004545,0.057541
793.484606,0.300000,0.128283
793.517988,-0.095455,0.070747
793.551369,0.052273,0.086744
793.584750,0.263636,0.024266
793.618131,-0.072727,0.041161
793.651512,-0.075000,0.116259
793.684893,0.145455,0.075788
793.718273,0.093182,0.032201
793.751653,-0.006818,0.109061
793.785032,0.152273,0.218735
793.818411,0.020455,0.050858
793.851790,-0.236364,0.039756
793.885169,-0.145455,0.042153
793.918548,0.020455,0.090475
793.951926,0.293182,0.106230
793.985304,0.004545,0.091164
794.018681,0.075000,0.052458
794.052059,-0.095455,0.128585
794.085436,0.175000,0.110004
794.118812,0.100000,0.061237
794.152189,-0.138636,0.084267
794.185565,0.140909,0.097727
794.218941,0.209091,0.143812
794.252317,0.209091,0.097118
794.285692,-0.015909,0.084817
794.319067,0.204545,0.204230
794.352442,0.168182,0.108450
794.385816,1.447727,0.486187
794.419190,3.434091,0.692361
794.452564,1.667424,0.216758
794.485938,1.118182,0.306928
794.519311,-0.054545,0.176396
794.552684,0.279545,0.167115
794.586057,-0.209091,0.056864
794.619429,0.081818,0.130993
794.652802,0.070455,0.038081
794.686173,0.079545,0.105400
794.719545,0.486364,0.117018
794.752916,0.138636,0.127410
794.786287,0.361364,0.131440
794.819658,0.011364,0.153316
794.853029,-0.170455,0.117012
794.886399,0.097727,0.093562
794.919769,0.022727,0.073399
794.953138,0.168182,0.041969
794.986508,-0.215909,0.040449
795.019877,0.097727,0.057619
795.053245,0.015909,0.201297
795.086614,0.154545,0.165363
795.119982,0.243182,0.074091
795.153350,0.027273,0.081121
795.186718,0.356818,0.183441
795.220085,0.043182,0.052359
795.253452,0.218182,0.056408
795.286819,0.095455,0.032221
795.320185,0.088636,0.142381
795.353551,0.397727,0.237897
795.386917,-0.020455,0.090475
795.420283,-0.156818,0.104909
795.453648,0.184091,0.106133
795.487013,0.127273,0.105038
795.520378,-0.022727,0.060856
795.553742,0.018182,0.084060
795.587107,0.750000,0.478910
795.620471,-0.097727,0.057619
795.653834,0.315909,0.175615
795.687197,0.000000,0.035355
795.720560,-0.115909,0.049311
795.753923,0.040909,0.118727
795.787286,0.218182,0.056408
795.820648,0.345455,0.217826
795.854010,-0.279545,0.096604
795.887371,0.240909,0.056178
795.920733,0.554545,0.314311
795.954094,0.047727,0.055426
795.987454,0.072727,0.041161
796.020815,0.118182,0.018464
796.054175,0.286364,0.096664
796.087535,0.213636,0.017457
796.120894,0.138636,0.070957
796.154254,0.050000,0.025000
796.187613,0.415909,0.135084
796.220971,0.790909,0.220794
796.254330,1.679545,0.216360
796.287688,3.940909,0.501944
796.321046,7.740909,0.673537
796.354403,5.515909,0.661386
796.387761,2.465909,0.478714
796.421118,0.765909,0.183131
796.454474,0.029545,0.102821
796.487831,0.090909,0.112310
796.521187,-0.052273,0.054391
796.554543,0.363636,0.164235
796.587898,-0.020455,0.071320
796.621254,0.297727,0.177429
796.654609,0.131818,0.195547
796.687963,0.122727,0.114022
796.721318,-0.381818,0.048638
796.754672,-0.288636,0.187093
796.788026,0.195455,0.152578
796.821379,-0.118182,0.018464
796.854732,0.368182,0.185767
796.888085,-0.068182,0.080128
796.921438,0.138636,0.110004
796.954790,0.106818,0.182566
796.988142,0.161364,0.058421
797.021494,0.711364,0.217717
797.054846,-0.043182,0.133197
797.088197,0.070455,0.130177
797.121548,-0.027273,0.039756
797.154899,0.240909,0.046075
797.188249,0.170455,0.043524
797.221599,0.627273,0.177738
797.254949,0.286364,0.133512
797.288298,0.040909,0.124545
797.321648,0.029545,0.070519
797.354996,-0.309091,0.039101
797.388345,0.120455,0.063748
797.421693,-0.093182,0.055705
797.455041,-0.054545,0.103303
797.488389,0.588636,0.321274
797.521737,0.045455,0.076803
797.555084,0.102273,0.077631
797.588431,-0.204545,0.109398
797.621777,-0.072727,0.021076
797.655124,-0.286364,0.064643
797.688470,0.134091,0.146423
797.721815,0.190909,0.004545
797.755161,0.088636,0.242882
797.788506,0.097727,0.086326
797.821851,0.218182,0.063229
797.855196,0.429545,0.072398
797.888540,0.097727,0.061269
797.921884,-0.093182,0.074854
797.955228,-0.118182,0.018464
797.988571,0.315909,0.197750
798.021914,0.206818,0.186513
798.055257,0.336364,0.356014
798.088599,0.215909,0.055705
798.121942,0.972727,0.234389
798.155284,2.296212,0.664477
798.188625,4.070455,0.229363
798.221967,9.088636,0.541619
798.255308,5.590909,0.672474
798.288649,1.972727,0.357086
798.321989,0.445455,0.191152
798.355329,0.559091,0.144618
798.388669,-0.236364,0.018182
798.422009,0.161364,0.058421
798.455348,0.140909,0.020455
798.488687,-0.165909,0.053626
798.522026,0.118182,0.049061
798.555365,0.265909,0.093341
798.588703,0.152273,0.193419
798.622041,0.290909,0.089304
798.655378,0.143182,0.071753
798.688716,0.325000,0.177167
798.722053,0.338636,0.131794
798.755389,0.143182,0.071753
798.788726,0.043182,0.094551
798.822062,0.029545,0.070519
798.855398,0.097727,0.035410
798.888733,0.690909,0.251257
798.922069,0.254545,0.225539
798.955404,0.054545,0.079513
798.988738,0.302273,0.178706
799.022073,0.188636,0.030724
799.055407,0.209091,0.080930
799.088741,-0.122727,0.041845
799.122074,0.518182,0.344631
799.155408,0.029545,0.062768
799.188741,0.315909,0.175615
799.222073,-0.027273,0.060388
799.255406,0.306818,0.102064
799.288738,0.345455,0.249462
799.322069,0.027273,0.039756
799.355401,-0.170455,0.077631
799.388732,-0.029545,0.089845
799.422063,0.190909,0.102802
799.455394,0.363636,0.111155
799.488724,0.070455,0.038081
799.522054,-0.043182,0.110940
799.555384,0.470455,0.327657
799.588713,-0.047727,0.055426
799.622042,-0.281818,0.087787
799.655371,0.193182,0.127976
799.688700,-0.209091,0.101487
799.722028,0.136364,0.083258
799.755356,-0.025000,0.038753
799.788684,-0.163636,0.093376
799.822011,-0.236364,0.107613
799.855338,0.388636,0.148594
799.888665,0.172727,0.087315
799.921992,0.338636,0.293373
799.955318,0.263636,0.074759
799.988644,0.645455,0.287947
800.021969,1.525000,0.358578
800.055295,4.729545,0.611700
800.088620,10.552273,1.309735
800.121945,21.384091,2.778646
800.155269,13.806818,0.594512
800.188593,2.649242,0.586658
800.221917,1.172727,0.259151
800.255241,-0.040909,0.078828
800.288564,0.347727,0.160975
800.321887,-0.025000,0.067831
800.355210,0.006818,0.075472
800.388532,0.193182,0.037119
800.421854,0.172727,0.222054
800.455176,-0.009091,0.215178
800.488498,0.275000,0.184087
800.521819,0.802273,0.370230
800.555140,0.243182,0.341777
800.588461,0.127273,0.166484
800.621781,0.838636,0.123331
800.655101,-0.022727,0.086334
800.688421,0.322727,0.440106
800.721740,0.302273,0.133816
800.755060,-0.027273,0.039756
800.788379,0.161364,0.066679
800.821697,0.254545,0.116952
800.855015,0.352273,0.190405
800.888334,0.072727,0.061322
800.921651,-0.068182,0.037689
800.954969,-0.097727,0.035410
800.988286,0.115909,0.049311
801.021603,-0.061364,0.165874
801.054919,0.218182,0.056408
801.088235,0.240909,0.083102
801.121551,0.770455,0.279599
801.154867,0.256818,0.085424
801.188183,0.304545,0.267169
801.221498,0.284091,0.057977
801.254812,0.263636,0.024266
801.288127,0.113636,0.082478
801.321441,0.190909,0.070857
801.354755,-0.015909,0.084817
801.388069,0.218182,0.083258
801.421382,-0.629545,0.242093
801.454695,0.309091,0.361657
801.488008,0.147727,0.129939
801.521320,-0.047727,0.023918
801.554632,0.345455,0.226521
801.587944,0.631818,0.249162
801.621256,0.354545,0.091926
801.654567,0.022727,0.019682
801.687878,-0.095455,0.035428
801.721189,0.300000,0.166298
801.754499,0.754545,0.446913
801.787809,-0.047727,0.051363
801.821119,0.238636,0.051664
801.854428,0.215909,0.024557
801.887737,0.577273,0.305062
801.921046,0.827273,0.191584
801.954355,3.127273,0.604144
801.987663,9.956818,0.764497
802.020971,18.934091,0.568158
802.054279,21.770455,1.092666
802.087586,11.950000,0.918286
802.120894,2.643182,0.519867
802.154200,0.804545,0.265715
802.187507,0.263636,0.062490
802.220813,0.195455,0.093624
802.254119,0.388636,0.120749
802.287425,0.384091,0.343330
802.320730,0.377273,0.134245
802.354035,-0.620455,0.073179
802.387340,0.143182,0.071753
802.420644,0.168182,0.041969
802.453949,0.013636,0.150944
802.487252,0.184091,0.141289
802.520556,-0.093182,0.055705
802.553859,0.045455,0.052911
802.587162,0.170455,0.066290
802.620465,0.165909,0.110333
802.653767,0.320455,0.144863
802.687069,0.481818,0.389347
802.720371,0.122727,0.054782
802.753673,0.213636,0.039430
802.786974,0.413636,0.141914
802.820275,0.465909,0.346102
802.853576,0.311364,0.056442
802.886876,0.122727,0.054782
802.920176,-0.093182,0.055705
802.953476,-0.143182,0.177691
802.986775,0.245455,0.083691
803.020074,0.900000,0.203736
803.053373,-0.050000,0.077506
803.086672,0.109091,0.105773
803.119970,0.145455,0.126988
803.153268,0.025000,0.067831
803.186565,0.068182,0.092123
803.219863,0.202273,0.159751
803.253160,0.290909,0.065002
803.286457,0.231818,0.173696
803.319753,0.054545,0.079513
803.353049,-0.031818,0.195758
803.386345,0.040909,0.119421
803.419641,0.343182,0.296508
803.452936,0.238636,0.100842
803.486231,0.000000,0.047781
803.519525,0.295455,0.206743
803.552820,-0.050000,0.130973
803.586114,0.315909,0.069337
803.619408,0.213636,0.112701
803.652701,0.311364,0.158061
803.685994,0.606818,0.331715
803.719287,0.170455,0.136718
803.752580,0.220455,0.089672
803.785872,0.586364,0.265754
803.819164,0.225000,0.143069
803.852456,1.127273,0.234058
803.885747,4.272727,0.465149
803.919038,12.263636,0.875056
803.952329,33.704545,1.688649
803.985620,37.987121,1.931276
804.018910,17.038636,2.069236
804.052200,2.388636,0.469541
804.085489,0.477273,0.111410
804.118779,0.379545,0.101760
804.152068,-0.004545,0.067535
804.185357,0.138636,0.067831
804.218645,0.359091,0.109209
804.251933,0.306818,0.112924
804.285221,0.054545,0.120089
804.318508,0.025000,0.021651
804.351796,0.838636,0.171598
804.385083,0.238636,0.051664
804.418369,0.525000,0.443530
804.451656,0.440909,0.148877
804.484942,-0.259091,0.033633
804.518227,-0.170455,0.054106
804.551513,0.327273,0.114812
804.584798,0.109091,0.105773
804.618083,0.340909,0.166902
804.651367,0.100000,0.117260
804.684652,0.368182,0.176470
804.717936,-0.293182,0.127612
804.751219,0.911364,0.239282
804.784503,0.534091,0.297361
804.817786,0.359091,0.258822
804.851068,0.247727,0.197489
804.884351,0.613636,0.228824
804.917633,0.222727,0.167674
804.950915,0.345455,0.177709
804.984196,0.536364,0.296519
805.017478,-0.063636,0.109327
805.050759,0.188636,0.058685
805.084039,0.000000,0.077673
805.117320,0.086364,0.133473
805.150600,0.195455,0.187124
805.183879,0.538636,0.314481
805.217159,0.127273,0.172578
805.250438,0.425000,0.044464
805.283717,-0.111364,0.096551
805.316995,0.390909,0.109375
805.350274,0.045455,0.076803
805.383552,0.315909,0.175615
805.416829,0.343182,0.178677
805.450107,0.193182,0.058685
805.483384,-0.020455,0.071320
805.516660,0.159091,0.245570
805.549937,0.288636,0.123331
805.583213,0.534091,0.164686
805.616489,0.229545,0.114874
805.649764,0.470455,0.113562
805.683040,0.795455,0.148216
805.716315,0.309091,0.107132
805.749589,0.368182,0.220923
805.782864,1.011364,0.163364
805.816138,8.838636,0.925591
805.849411,29.031818,2.016588
805.882685,71.000000,0.860064
805.915958,81.975758,1.605207
805.949231,49.459091,3.322290
805.982504,11.890909,0.784746
806.015776,2.063636,0.695373
806.049048,0.581818,0.189824
806.082319,-0.056818,0.154424
806.115591,0.081818,0.153000
806.148862,-0.255303,0.050552
806.182133,0.395455,0.196390
806.215403,0.302273,0.121005
806.248673,0.811364,0.366936
806.281943,-0.072727,0.086662
806.315213,0.579545,0.236197
806.348482,-0.034091,0.174109
806.381751,0.047727,0.055426
806.415019,-0.168182,0.022613
806.448288,0.281818,0.052025
806.481556,0.338636,0.115054
806.514823,0.120455,0.068286
806.548091,0.302273,0.084512
806.581358,0.493182,0.281164
806.614625,0.247727,0.224422
806.647891,0.088636,0.107583
806.681158,0.093182,0.055705
806.714424,0.090909,0.055670
806.747689,0.365909,0.186596
806.780955,0.334091,0.256876
806.814220,0.340909,0.155262
806.847484,0.100000,0.061237
806.880749,0.411364,0.116836
806.914013,0.256818,0.232361
806.947277,0.072727,0.073785
806.980540,0.063636,0.120003
807.013803,0.400000,0.202566
807.047066,0.702273,0.392483
807.080329,0.243182,0.076963
807.113591,0.236364,0.097277
807.146853,0.163636,0.111665
807.180115,0.070455,0.128258
807.213376,0.475000,0.097084
807.246637,0.468182,0.269785
807.279898,0.272727,0.321749
807.313159,0.602273,0.318739
807.346419,-0.125000,0.144041
807.379679,-0.111364,0.082596
807.412938,0.381818,0.290678
807.446198,0.172727,0.065634
807.479457,0.126515,0.080719
807.512715,0.281818,0.052025
807.545974,0.075000,0.101251
807.579232,-0.236364,0.036927
807.612490,0.175000,0.213234
807.645747,0.818182,0.260403
807.679004,0.265909,0.097879
807.712261,0.677273,0.278082
807.745518,4.715909,0.537435
807.778774,26.522727,1.114042
807.812030,81.925758,1.247727
807.845285,148.438636,3.736945
807.878541,118.595455,4.561088
807.911796,29.065909,0.769949
807.945051,4.327273,0.845754
807.978305,0.820455,0.373867
808.011559,0.075000,0.208209
808.044813,0.159091,0.275113
808.078066,0.465909,0.306766
808.111320,0.288636,0.128500
808.144573,0.359091,0.143794
808.177825,0.356818,0.036840
808.211078,0.004545,0.162512
808.244330,0.263636,0.282075
808.277581,0.668182,0.248560
808.310833,0.320455,0.194378
808.344084,0.479545,0.339198
808.377335,0.347727,0.147933
808.410585,0.700000,0.107277
808.443835,0.079545,0.119199
808.477085,0.634091,0.213113
808.510335,-0.221970,0.048643
808.543584,1.020455,0.216097
808.576833,-0.022727,0.040465
808.610082,0.422727,0.146780
808.643330,-0.311364,0.090475
808.676578,0.347727,0.147933
808.709826,0.215909,0.068813
808.743073,0.293182,0.258739
808.776320,0.065909,0.088337
808.809567,0.000000,0.095563
808.842814,0.377273,0.223457
808.876060,0.831818,0.221133
808.909306,0.375000,0.218782
808.942552,0.843182,0.210553
808.975797,0.261364,0.037119
809.009042,0.461364,0.213234
809.042287,0.115909,0.074369
809.075531,-0.027273,0.039756
809.108775,0.163636,0.057765
809.142019,0.975000,0.272109
809.175262,0.977273,0.287147
809.208506,0.402273,0.067295
809.241748,0.761364,0.317928
809.274991,0.656818,0.195781
809.308233,0.311364,0.160268
809.341475,0.440909,0.239436
809.374717,0.118182,0.039886
809.407958,0.588636,0.170723
809.441199,0.752273,0.458904
809.474440,0.238636,0.215619
809.507680,0.195455,0.138785
809.540921,0.113636,0.102726
809.574160,0.068182,0.094174
809.607400,0.238636,0.090017
809.640639,0.704545,0.177462
809.673878,0.752273,0.248370
809.707117,5.600000,0.504535
809.740355,35.970455,0.939939
809.773593,111.985606,1.818823
809.806831,188.593182,5.024688
809.840068,109.226515,3.793213
809.873305,17.325000,1.365514
809.906542,2.980303,0.576244
809.939778,1.106818,0.376730
809.973015,-0.134091,0.162158
810.006250,0.263636,0.089650
810.039486,0.979545,0.847836
810.072721,0.588636,0.211678
810.105956,0.170455,0.145006
810.139191,0.588636,0.302288
810.172425,0.368182,0.170969
810.205659,0.313636,0.275263
810.238893,1.047727,0.340263
810.272126,0.665909,0.025180
810.305359,0.809091,0.287354
810.338592,0.702273,0.237658
810.371825,1.819697,0.441309
810.405057,1.138636,0.050347
810.438289,0.836364,0.311770
810.471520,0.731818,0.320277
810.504751,1.602273,0.442854
810.537982,0.836364,0.306051
810.571213,1.293182,0.243349
810.604443,0.872727,0.401971
810.637673,0.452273,0.183413
810.670903,0.297727,0.157963
810.704133,0.325000,0.133391
810.737362,0.606818,0.179052
810.770591,0.450000,0.337429
810.803819,-0.093182,0.267418
810.837047,0.375000,0.235299
810.870275,0.486364,0.209029
810.903503,0.575000,0.198428
810.936730,-0.268182,0.135089
810.969957,0.252273,0.102670
811.003184,-0.224242,0.040273
811.036410,0.379545,0.133623
811.069636,0.634091,0.181715
811.102862,0.834091,0.280539
811.136087,-0.088636,0.113471
811.169312,0.288636,0.180288
811.202537,0.479545,0.256070
811.235762,0.643182,0.321627
811.268986,0.688636,0.486580
811.302210,-0.059091,0.279804
811.335433,-0.068182,0.259001
811.368656,0.763636,0.256345
811.401879,0.956818,0.172649
811.435102,1.020455,0.374005
811.468324,0.584091,0.166775
811.501546,1.118182,0.650961
811.534768,-1.090152,0.246324
811.567990,0.111364,0.212967
811.601211,0.527273,0.309692
811.634432,1.868182,0.182852
811.667652,4.922727,0.774633
811.700872,19.050758,0.571527
811.734092,66.363636,1.048538
811.767312,119.302273,2.258847
811.800531,73.504545,1.096644
811.833750,15.326515,0.629263
811.866969,2.195455,0.438507
811.900187,0.725000,0.174049
811.933405,-0.015909,0.148976
811.966623,0.497727,0.279414
811.999840,0.434091,0.201809
812.033057,-0.118182,0.073082
812.066274,0.097727,0.135351
812.099490,0.261364,0.229205
812.132707,0.284091,0.084022
812.165923,0.434091,0.158518
812.199138,1.138636,0.651265
812.232353,0.543182,0.261914
812.265568,0.168182,0.117590
812.298783,0.640909,0.052371
812.331997,1.156818,0.364422
812.365211,0.663636,0.324913
812.398425,0.636364,0.210494
812.431638,0.697727,0.241453
812.464851,0.630303,0.074874
812.498064,0.231818,0.148738
812.531277,0.150000,0.234003
812.564489,0.484091,0.357727
812.597701,0.065909,0.113880
812.630912,0.509091,0.147535
812.664123,0.413636,0.141914
