#{
#    "background_file": "Backgrounds\\\\bg_785.995nm_13bin_219st_244en_10.0s_110g_4x_13_seq.txt",
#    "ccd_image_settings": [
#        1,
#        13,
#        1,
#        1600,
#        219,
#        244
#    ],
#    "ccd_temperature": "-87",
#    "cdRatios": {
#        "mean": 0.956402263116825,
#        "std": 0.0076222329679529275
#    },
#    "center_lambda": 786.0,
#    "comments": "",
#    "dark_region": 30.598994037208378,
#    "date": "10/22/20 17:01:45PM",
#    "eff_field": 1.5,
#    "exposure": 10.0,
#    "fel_lambda": "15.0",
#    "fel_pol": "H",
#    "fel_pulses": 42,
#    "fel_pyro_cal": "0.012",
#    "fel_reprate": "1.07",
#    "fel_transmission": "1.0",
#    "fel_transmission_fits": {
#        "A": 1.0,
#        "C": 0.0,
#        "Mu": 0.0
#    },
#    "fieldInt": {
#        "mean": 5206.892037878787,
#        "std": 251.09866339566122
#    },
#    "fieldStrength": {
#        "mean": 33.09769507575757,
#        "std": 0.8012077358844576
#    },
#    "fpTime": {
#        "mean": 0.9836974931186334,
#        "std": 0.0816852397772441
#    },
#    "gain": 110,
#    "grating": 3,
#    "images_in_sequence": [
#        "hsg_820nm_c123_am45_HAna449.txt",
#        "hsg_820nm_c123_am45_HAna450.txt",
#        "hsg_820nm_c123_am45_HAna451.txt",
#        "hsg_820nm_c123_am45_HAna452.txt"
#    ],
#    "nir_lambda": "819.98",
#    "nir_pola": "-45",
#    "nir_polg": "0",
#    "nir_power": "100.0",
#    "pulseEnergies": {
#        "mean": 1.5728768939393938,
#        "std": 0.08460170159124453
#    },
#    "pyroVoltage": {
#        "mean": 0.13711306075586083,
#        "std": 0.00821436387949523
#    },
#    "rotatorAngle": 292.49999633788167,
#    "sample_Temp": "55",
#    "sample_name": "L001218.C1",
#    "series": "820_Fan",
#    "slits": "60",
#    "spec_step": "",
#    "window_trans": 0.92,
#    "y_max": 2,
#    "y_min": 1
#}
#
#
#
#
#
#
#
#
#
#
#
#
#
#
#
#
#
#
#
#
#
#
#
#
#
#
Wavelength,Signal,error
nm,arb. u.,arb.u.
Wavelength,820_Fan,error
759.194366,0.518182,0.232619
759.228015,0.175000,0.184396
759.261663,0.334091,0.025180
759.295311,0.370455,0.202193
759.328959,0.220455,0.153754
759.362607,0.477273,0.413330
759.396254,-0.070455,0.054010
759.429901,0.043182,0.123037
759.463548,0.236364,0.018182
759.497194,0.147727,0.240316
759.530841,0.629545,0.199467
759.564487,0.059091,0.142676
759.598133,0.186364,0.152950
759.631779,0.018182,0.105822
759.665424,0.520455,0.193579
759.699069,-0.157576,0.036316
759.732714,0.790909,0.306591
759.766359,0.452273,0.421042
759.800003,0.265909,0.055798
759.833648,0.204545,0.156092
759.867292,-0.168182,0.041969
759.900935,0.075000,0.052458
759.934579,0.481818,0.389347
759.968222,0.143182,0.071753
760.001865,0.304545,0.203419
760.035508,0.197727,0.094167
760.069151,0.590909,0.059786
760.102793,0.211364,0.098929
760.136435,0.256818,0.138557
760.170077,0.145455,0.027273
760.203718,0.036364,0.199483
760.237360,-0.284091,0.115143
760.271001,0.111364,0.126963
760.304642,0.250000,0.167057
760.338283,-0.127273,0.145028
760.371923,0.045455,0.068182
760.405563,0.331818,0.096878
760.439203,0.165909,0.067142
760.472843,0.495455,0.347727
760.506482,0.038636,0.201143
760.540122,0.247727,0.225387
760.573761,0.511364,0.174878
760.607399,0.322727,0.198691
760.641038,0.000000,0.077673
760.674676,0.195455,0.154161
760.708314,0.354545,0.119659
760.741952,0.068182,0.059047
760.775589,-0.075000,0.052458
760.809227,0.097727,0.145432
760.842864,0.238636,0.051664
760.876501,0.172727,0.248404
760.910137,0.468182,0.146181
760.943774,0.643182,0.204580
760.977410,0.352273,0.363571
761.011046,0.072727,0.021076
761.044681,0.450000,0.301948
761.078317,0.190909,0.035646
761.111952,0.265909,0.221083
761.145587,-0.120455,0.124622
761.179221,0.118182,0.118269
761.212856,-0.645455,0.031655
761.246490,0.179545,0.186097
761.280124,0.197727,0.094167
761.313758,0.345455,0.190259
761.347391,0.081818,0.140027
761.381024,-0.059091,0.148460
761.414657,-0.088636,0.113471
761.448290,0.770455,0.164373
761.481923,0.247727,0.103920
761.515555,0.184091,0.084451
761.549187,-0.181818,0.115171
761.582819,0.100000,0.114226
761.616450,-0.059091,0.189837
761.650082,0.365909,0.376373
761.683713,0.297727,0.140666
761.717344,0.256818,0.247558
761.750974,0.243182,0.235562
761.784605,-0.284091,0.073671
761.818235,0.406818,0.205939
761.851865,0.002273,0.075540
761.885494,-0.372727,0.199353
761.919124,0.361364,0.117936
761.952753,0.177273,0.244390
761.986382,0.322727,0.111364
762.020010,0.490909,0.163763
762.053639,0.684091,0.398673
762.087267,0.981818,0.407978
762.120895,0.811364,0.245273
762.154523,-0.015909,0.125407
762.188150,0.363636,0.316897
762.221777,-0.018182,0.093541
762.255404,0.002273,0.056625
762.289031,0.045455,0.039365
762.322658,0.047727,0.023918
762.356284,-0.093182,0.032201
762.389910,-0.502273,0.043761
762.423536,0.070455,0.067449
762.457161,-0.120455,0.023038
762.490786,0.140909,0.040846
762.524411,0.056818,0.157799
762.558036,0.436364,0.320817
762.591661,0.222727,0.139157
762.625285,-0.454545,0.027835
762.658909,-0.054545,0.072727
762.692533,0.447727,0.208630
762.726157,0.118182,0.039886
762.759780,0.000000,0.110829
762.793403,0.277273,0.186903
762.827026,0.097727,0.061269
762.860649,0.309091,0.085703
762.894271,-0.025000,0.021651
762.927893,0.250000,0.246012
762.961515,0.100000,0.117260
762.995137,0.095455,0.035428
763.028758,0.004545,0.080063
763.062379,0.202273,0.261559
763.096000,-0.043182,0.052359
763.129621,0.129545,0.126474
763.163241,0.356818,0.448498
763.196862,0.354545,0.110455
763.230481,0.609091,0.248092
763.264101,-0.126515,0.080719
763.297721,0.386364,0.284618
763.331340,0.027273,0.186807
763.364959,0.386364,0.209227
763.398578,-0.386364,0.132385
763.432196,0.027273,0.244822
763.465814,0.265909,0.396802
763.499432,0.125000,0.064952
763.533050,0.197727,0.193819
763.566668,0.000000,0.035355
763.600285,0.184091,0.230037
763.633902,0.402273,0.101455
763.667519,0.468182,0.132736
763.701135,0.129545,0.148907
763.734752,-0.063636,0.083382
763.768368,0.097727,0.127491
763.801984,-0.022727,0.088520
763.835599,0.206818,0.198948
763.869215,0.170455,0.102115
763.902830,0.179545,0.211263
763.936444,0.156818,0.273056
763.970059,-0.006818,0.119977
764.003673,0.190909,0.073504
764.037288,0.318182,0.124855
764.070901,0.263636,0.270502
764.104515,-0.040909,0.078828
764.138128,0.209091,0.072798
764.171742,0.152273,0.137997
764.205354,-0.075000,0.076492
764.238967,0.240909,0.106867
764.272580,0.331818,0.370301
764.306192,0.293182,0.127612
764.339804,0.118182,0.018464
764.373415,-0.086364,0.098569
764.407027,-0.045455,0.022727
764.440638,0.143182,0.082345
764.474249,-0.004545,0.057541
764.507860,-0.311364,0.069411
764.541470,0.322727,0.198691
764.575080,0.443182,0.161775
764.608690,0.084091,0.159654
764.642300,0.027273,0.254748
764.675909,-0.163636,0.050206
764.709519,0.647727,0.317522
764.743128,0.115909,0.114152
764.776736,0.461364,0.168347
764.810345,0.115909,0.070225
764.843953,0.009091,0.232619
764.877561,-0.140909,0.051975
764.911169,0.593182,0.163743
764.944776,0.022727,0.088520
764.978384,0.322727,0.146780
765.011991,0.220455,0.139671
765.045598,0.295455,0.128424
765.079204,0.213636,0.085854
765.112810,-0.104545,0.122200
765.146416,0.070455,0.038081
765.180022,0.356818,0.127895
765.213628,-0.195455,0.115239
765.247233,0.000000,0.035355
765.280838,0.361364,0.103970
765.314443,0.029545,0.062768
765.348048,0.102273,0.089960
765.381652,0.206818,0.263781
765.415256,0.106818,0.182566
765.448860,0.075000,0.072469
765.482463,-0.031818,0.116309
765.516067,0.406818,0.070078
765.549670,0.397727,0.177749
765.583273,0.147727,0.056442
765.616875,0.175000,0.107246
765.650478,0.031818,0.279545
765.684080,0.102273,0.124871
765.717682,0.106818,0.153080
765.751283,0.004545,0.059396
765.784885,0.195455,0.152578
765.818486,0.147727,0.056442
765.852087,0.656818,0.388369
765.885687,0.047727,0.071681
765.919288,0.147727,0.112924
765.952888,0.015909,0.090703
765.986488,0.497727,0.384586
766.020087,-0.020455,0.135466
766.053687,0.327273,0.186751
766.087286,0.486364,0.337245
766.120885,0.097727,0.061269
766.154484,0.211364,0.114243
766.188082,0.122727,0.054782
766.221680,0.034091,0.143177
766.255278,0.202273,0.235540
766.288876,0.125000,0.064952
766.322473,-0.043182,0.052359
766.356070,0.340909,0.162257
766.389667,0.168182,0.041969
766.423264,-0.077273,0.225756
766.456860,0.400000,0.128082
766.490457,0.479545,0.311544
766.524053,-0.045455,0.039365
766.557648,0.329545,0.246051
766.591244,0.054545,0.072727
766.624839,-0.163636,0.079188
766.658434,0.143182,0.024133
766.692029,0.261364,0.037119
766.725623,0.054545,0.101436
766.759217,0.095455,0.164565
766.792811,-0.031818,0.169634
766.826405,0.129545,0.157077
766.859999,0.265909,0.074922
766.893592,0.000000,0.073364
766.927185,0.234091,0.092396
766.960777,-0.084091,0.232027
766.994370,0.231818,0.173696
767.027962,0.095455,0.032221
767.061554,0.493182,0.212433
767.095146,0.252273,0.194245
767.128737,-0.120455,0.068286
767.162329,-0.193182,0.094222
767.195920,0.077273,0.154996
767.229510,0.393182,0.184732
767.263101,0.015909,0.090703
767.296691,0.202273,0.159751
767.330281,-0.320455,0.132731
767.363871,-0.381818,0.073925
767.397460,0.143182,0.024133
767.431050,0.486364,0.216315
767.464639,0.465909,0.191109
767.498227,0.786364,0.377909
767.531816,0.197727,0.153080
767.565404,0.200000,0.293508
767.598992,-0.100000,0.061237
767.632580,0.147727,0.075404
767.666168,0.093182,0.032201
767.699755,0.079545,0.108205
767.733342,0.306818,0.046396
767.766929,0.000000,0.124025
767.800515,0.161364,0.066679
767.834101,0.015909,0.098458
767.867687,-0.140909,0.038098
767.901273,0.147727,0.075404
767.934859,-0.402273,0.059124
767.968444,0.184091,0.193178
768.002029,0.165909,0.037534
768.035614,0.000000,0.110829
768.069198,0.022727,0.040465
768.102783,-0.347727,0.136454
768.136367,0.161364,0.141216
768.169950,0.063636,0.101334
768.203534,0.147727,0.134854
768.237117,0.315909,0.215259
768.270700,0.050000,0.040719
768.304283,0.215909,0.024557
768.337866,0.022727,0.088520
768.371448,0.111364,0.160782
768.405030,-0.290909,0.089304
768.438612,-0.093182,0.032201
768.472193,0.754545,0.370866
768.505775,-0.068182,0.051676
768.539356,0.197727,0.094167
768.572936,0.352273,0.139486
768.606517,0.295455,0.230377
768.640097,-0.118182,0.060473
768.673677,-0.002273,0.134931
768.707257,0.234091,0.109109
768.740836,0.393182,0.184732
768.774416,0.518182,0.204217
768.807995,-0.004545,0.067535
768.841574,0.443182,0.197750
768.875152,0.402273,0.133391
768.908730,-0.027273,0.053203
768.942308,0.025000,0.038753
768.975886,-0.025000,0.021651
769.009464,0.586364,0.150292
769.043041,0.009091,0.100721
769.076618,0.347727,0.181601
769.110195,0.265909,0.067678
769.143771,0.222727,0.096771
769.177348,0.020455,0.100432
769.210924,-0.050000,0.135661
769.244499,0.286364,0.073680
769.278075,0.195455,0.052273
769.311650,0.002273,0.060334
769.345225,0.268182,0.088985
769.378800,0.211364,0.047822
769.412375,0.325000,0.198037
769.445949,-0.077273,0.123378
769.479523,0.345455,0.218087
769.513097,0.040909,0.095373
769.546670,0.259091,0.090539
769.580243,0.159091,0.197047
769.613816,0.195455,0.070820
769.647389,-0.245455,0.090852
769.680962,0.136364,0.093707
769.714534,-0.120455,0.039545
769.748106,0.068182,0.068823
769.781678,0.050000,0.075000
769.815249,-0.143182,0.024133
769.848820,-0.456818,0.059298
769.882391,0.461364,0.168040
769.915962,0.375000,0.095095
769.949533,-0.025000,0.021651
769.983103,0.236364,0.036927
770.016673,0.286364,0.175707
770.050243,0.272727,0.162750
770.083812,-0.220455,0.074438
770.117381,0.256818,0.276981
770.150950,0.220455,0.105547
770.184519,-0.118182,0.039886
770.218088,0.354545,0.192338
770.251656,0.645455,0.513163
770.285224,-0.052273,0.054391
770.318791,-0.097727,0.076289
770.352359,0.193182,0.058685
770.385926,0.138636,0.070957
770.419493,0.022727,0.040465
770.453060,-0.377273,0.061448
770.486626,0.154545,0.131701
770.520192,0.159091,0.179574
770.553758,0.022727,0.145081
770.587324,0.066667,0.051959
770.620890,0.000000,0.095563
770.654455,-0.022727,0.040465
770.688020,0.225000,0.124373
770.721584,0.084091,0.172109
770.755149,0.325000,0.206765
770.788713,0.140909,0.040846
770.822277,0.318182,0.199431
770.855841,-0.345455,0.131857
770.889404,-0.072727,0.086662
770.922967,0.168182,0.108211
770.956530,0.581818,0.113727
770.990093,0.354545,0.091926
771.023655,1.009091,0.203812
771.057217,0.152273,0.141106
771.090779,0.147727,0.075404
771.124341,-0.547727,0.062023
771.157902,0.000000,0.077673
771.191463,0.222727,0.173726
771.225024,0.006818,0.114874
771.258585,0.356818,0.202856
771.292145,0.300000,0.166298
771.325705,0.145455,0.075788
771.359265,0.388636,0.148594
771.392825,0.331818,0.125041
771.426384,-0.075000,0.052458
771.459943,-0.095455,0.032221
771.493502,-0.120455,0.055052
771.527061,0.265909,0.145645
771.560619,0.322727,0.361206
771.594177,0.002273,0.033767
771.627735,0.120455,0.039545
771.661293,0.261364,0.053337
771.694850,-0.011364,0.131872
771.728407,0.181818,0.245223
771.761964,0.247727,0.115323
771.795521,0.050000,0.081597
771.829077,0.534091,0.372552
771.862633,0.197727,0.117760
771.896189,0.175000,0.247996
771.929744,-0.100000,0.061237
771.963300,0.097727,0.093562
771.996855,-0.045455,0.042030
772.030409,0.022727,0.019682
772.063964,0.222727,0.173726
772.097518,0.004545,0.116309
772.131072,-0.027273,0.184329
772.164626,0.454545,0.203558
772.198180,0.288636,0.128097
772.231733,0.095455,0.047835
772.265286,-0.009091,0.106746
772.298839,-0.259091,0.033633
772.332391,0.100000,0.114226
772.365943,0.209091,0.263538
772.399495,0.450000,0.120540
772.433047,-0.045455,0.080930
772.466598,-0.065909,0.060591
772.500150,0.193182,0.062272
772.533701,-0.120455,0.023038
772.567251,0.120455,0.139856
772.600802,0.133333,0.103918
772.634352,0.104545,0.108783
772.667902,0.377273,0.103876
772.701452,0.052273,0.129061
772.735001,-0.002273,0.147653
772.768550,0.138636,0.100174
772.802099,-0.068182,0.059047
772.835648,0.063636,0.180592
772.869196,-0.113636,0.068823
772.902744,-0.038636,0.107391
772.936292,0.347727,0.147933
772.969840,0.306818,0.068210
773.003387,0.165909,0.037534
773.036934,0.443182,0.146423
773.070481,0.313636,0.124254
773.104028,-0.140909,0.038098
773.137574,-0.063636,0.090568
773.171120,-0.213636,0.039430
773.204666,0.186364,0.085129
773.238212,-0.070455,0.109769
773.271757,-0.047727,0.023918
773.305302,0.481818,0.112356
773.338847,0.256818,0.064793
773.372391,0.213636,0.039430
773.405936,-0.113636,0.082478
773.439480,0.056818,0.111358
773.473024,0.252273,0.107583
773.506567,0.261364,0.094222
773.540110,-0.075000,0.096014
773.573653,0.052273,0.070884
773.607196,0.350000,0.195256
773.640739,0.097727,0.093562
773.674281,-0.138636,0.070957
773.707823,0.588636,0.236525
773.741365,0.072727,0.073785
773.774906,0.145455,0.044652
773.808447,0.161364,0.141216
773.841988,0.140909,0.040846
773.875529,0.047727,0.089845
773.909070,-0.284091,0.029348
773.942610,-0.238636,0.055705
773.976150,0.077273,0.161524
774.009689,0.084091,0.192670
774.043229,-0.109091,0.156538
774.076768,0.095455,0.047835
774.110307,0.070455,0.067449
774.143845,-0.090909,0.112310
774.177384,-0.095455,0.047835
774.210922,0.093182,0.098668
774.244460,0.147727,0.134854
774.277997,0.075000,0.052458
774.311535,0.002273,0.033767
774.345072,-0.118182,0.018464
774.378609,0.259091,0.284400
774.412145,-0.122727,0.041845
774.445682,-0.015909,0.098458
774.479218,0.052273,0.073881
774.512754,0.088636,0.073320
774.546289,-0.165909,0.062521
774.579824,-0.206818,0.094660
774.613359,-0.113636,0.074516
774.646894,0.175000,0.107246
774.680429,0.081818,0.115798
774.713963,0.329545,0.064952
774.747497,0.118182,0.116863
774.781031,0.240909,0.173696
774.814564,-0.109091,0.111526
774.848097,0.050000,0.108972
774.881630,0.268182,0.076500
774.915163,0.197727,0.117760
774.948696,0.245455,0.083691
774.982228,0.122727,0.082165
775.015760,-0.140909,0.112701
775.049291,-0.070455,0.038081
775.082823,-0.040909,0.085129
775.116354,0.095455,0.070747
775.149885,0.090909,0.078730
775.183416,0.065909,0.088337
775.216946,-0.200000,0.232397
775.250476,0.368182,0.183557
775.284006,-0.054545,0.087019
775.317535,-0.238636,0.024557
775.351065,-0.029545,0.089845
775.384594,0.056818,0.164215
775.418123,0.097727,0.076289
775.451651,0.279545,0.201066
775.485180,-0.159091,0.116841
775.518708,0.052273,0.134009
775.552235,0.025000,0.067831
775.585763,-0.115909,0.114152
775.619290,0.222727,0.114519
775.652817,0.188636,0.054864
775.686344,0.761364,0.242882
775.719870,0.125000,0.081968
775.753397,0.268182,0.088985
775.786923,1.006818,0.263898
775.820448,-0.236364,0.039756
775.853974,0.390909,0.228926
775.887499,0.511364,0.177050
775.921024,0.104545,0.174882
775.954549,-0.104545,0.137289
775.988073,0.068182,0.068823
776.021597,0.156818,0.132809
776.055121,-0.006818,0.143502
776.088645,-0.072727,0.073785
776.122168,-0.265909,0.136416
776.155691,0.284091,0.054106
776.189214,-0.068182,0.094174
776.222737,0.175000,0.107246
776.256259,-0.354545,0.031655
776.289781,0.047727,0.051363
776.323303,0.509091,0.201544
776.356824,0.027273,0.053203
776.390346,0.161364,0.066679
776.423867,0.288636,0.136302
776.457387,-0.227273,0.184245
776.490908,0.097727,0.061269
776.524428,0.186364,0.088869
776.557948,-0.256818,0.064793
776.591468,0.063636,0.134725
776.624987,0.320455,0.148386
776.658506,0.022727,0.073399
776.692025,0.300000,0.293067
776.725544,-0.193182,0.104613
776.759062,0.052273,0.070884
776.792581,-0.075000,0.041458
776.826099,0.286364,0.102927
776.859616,0.218182,0.083258
776.893134,0.197727,0.094167
776.926651,0.490909,0.112632
776.960167,0.281818,0.313900
776.993684,0.097727,0.057619
777.027200,0.286364,0.133512
777.060716,0.145455,0.042153
777.094232,0.268182,0.133860
777.127748,0.190909,0.110922
777.161263,0.400000,0.128082
777.194778,0.786364,0.286733
777.228293,0.313636,0.073750
777.261807,0.240909,0.100849
777.295322,0.245455,0.104743
777.328836,-0.254545,0.115306
777.362349,0.250000,0.171843
777.395863,0.304545,0.124046
777.429376,-0.068182,0.080128
777.462889,0.175000,0.181573
777.496401,0.215909,0.064313
777.529914,0.170455,0.054106
777.563426,0.002273,0.103472
777.596938,0.265909,0.045611
777.630449,0.275000,0.138632
777.663961,0.565909,0.249387
777.697472,0.000000,0.035355
777.730983,0.140909,0.340977
777.764493,0.181818,0.324913
777.798004,0.856818,0.260886
777.831514,-0.097727,0.116836
777.865023,0.400000,0.239576
777.898533,0.247727,0.103920
777.932042,0.365909,0.099085
777.965551,0.450000,0.362847
777.999060,-0.093182,0.032201
778.032568,0.372727,0.128806
778.066076,0.122727,0.114022
778.099584,-0.043182,0.052359
778.133092,0.220455,0.074438
778.166599,0.218182,0.072443
778.200107,0.072727,0.118705
778.233613,0.175000,0.140004
778.267120,-0.027273,0.060388
778.300626,0.311364,0.085545
778.334132,0.156818,0.191918
778.367638,0.350000,0.199392
778.401144,0.338636,0.075745
778.434649,0.109091,0.205402
778.468154,0.425000,0.369462
778.501659,0.222727,0.123210
778.535163,0.643182,0.204833
778.568668,0.425000,0.181573
778.602172,-0.138636,0.070957
778.635675,-0.456818,0.059298
778.669179,0.334091,0.195015
778.702682,0.325000,0.143610
778.736185,0.311364,0.163459
778.769688,0.245455,0.131229
778.803190,-0.025000,0.084267
778.836692,0.122727,0.082165
778.870194,0.397727,0.147653
778.903696,0.220455,0.089672
778.937197,0.470455,0.273604
778.970698,0.236364,0.039756
779.004199,-0.020455,0.063667
779.037699,0.068182,0.080128
779.071200,0.363636,0.127110
779.104700,0.570455,0.242562
779.138199,0.402273,0.163774
779.171699,0.068182,0.094174
779.205198,0.270455,0.152878
779.238697,-0.125000,0.088044
779.272196,0.300000,0.150516
779.305694,0.159091,0.247665
779.339192,0.136364,0.083258
779.372690,0.143182,0.051464
779.406188,0.136364,0.098228
779.439685,-0.086364,0.121309
779.473182,-0.093182,0.032201
779.506679,0.215909,0.040449
779.540176,0.050000,0.025000
779.573672,-0.193182,0.058685
779.607168,0.465909,0.146705
779.640664,0.475000,0.178098
779.674160,0.150000,0.104915
779.707655,-0.120455,0.023038
779.741150,0.050000,0.040719
779.774644,0.220455,0.114197
779.808139,0.381818,0.133647
779.841633,0.077273,0.094993
779.875127,0.211364,0.069188
779.908621,0.284091,0.084022
779.942114,-0.090909,0.115395
779.975607,0.352273,0.110566
780.009100,-0.179545,0.135313
780.042593,0.263636,0.089650
780.076085,-0.020455,0.075404
780.109577,0.193182,0.058685
780.143069,-0.022727,0.040465
780.176560,-0.045455,0.080930
780.210052,0.245455,0.090852
780.243543,0.118182,0.161252
780.277033,0.068182,0.112333
780.310524,-0.256818,0.081842
780.344014,0.100000,0.061237
780.377504,0.250000,0.188746
780.410994,0.036364,0.236975
780.444483,0.165909,0.094387
780.477972,0.493182,0.206465
780.511461,0.097727,0.035410
780.544950,0.111364,0.210332
780.578438,0.288636,0.117936
780.611926,0.043182,0.069337
780.645414,0.000000,0.095563
780.678902,0.040909,0.085129
780.712389,0.213636,0.112701
780.745876,0.213636,0.107493
780.779363,0.118182,0.039886
780.812849,0.370455,0.140886
780.846335,-0.140909,0.038098
780.879821,0.093182,0.055705
780.913307,0.231818,0.065909
780.946792,0.354545,0.084855
780.980277,0.468182,0.170394
781.013762,-0.140909,0.038098
781.047247,0.000000,0.095563
781.080731,0.077273,0.063433
781.114215,0.045455,0.042030
781.147699,0.002273,0.056625
781.181183,0.202273,0.153013
781.214666,0.154545,0.169863
781.248149,-0.045455,0.052911
781.281632,0.165909,0.110333
781.315114,0.193182,0.037119
781.348596,0.625000,0.160235
781.382078,0.143182,0.024133
781.415560,0.247727,0.233447
781.449041,0.200000,0.184749
781.482522,0.077273,0.072621
781.516003,-0.002273,0.056625
781.549484,0.027273,0.039756
781.582964,0.259091,0.116309
781.616444,0.188636,0.102519
781.649924,-0.045455,0.105186
781.683404,-0.097727,0.086326
781.716883,0.029545,0.086446
781.750362,0.122727,0.054782
781.783841,0.143182,0.051464
781.817319,0.047727,0.055426
781.850797,0.218182,0.090167
781.884275,0.018182,0.070711
781.917753,0.145455,0.109516
781.951230,-0.009091,0.160126
781.984707,0.150000,0.104915
782.018184,0.002273,0.033767
782.051661,-0.043182,0.085484
782.085137,-0.029545,0.070519
782.118613,0.268182,0.133860
782.152089,0.290909,0.063311
782.185564,0.177273,0.154629
782.219040,0.070455,0.020423
782.252515,0.443182,0.163111
782.285989,0.515909,0.178185
782.319464,0.084091,0.163301
782.352938,0.204545,0.134783
782.386412,0.047727,0.051363
782.419885,-0.238636,0.024557
782.453359,-0.072727,0.118705
782.486832,0.293182,0.081968
782.520305,0.143182,0.113926
782.553777,-0.093182,0.055705
782.587249,-0.475000,0.026963
782.620721,-0.665909,0.051963
782.654193,0.170455,0.054106
782.687665,0.240909,0.043658
782.721136,0.175000,0.102317
782.754607,0.256818,0.191027
782.788077,0.409091,0.281121
782.821548,0.072727,0.041161
782.855018,0.075000,0.052458
782.888488,0.156818,0.116215
782.921957,0.120455,0.023038
782.955427,0.059091,0.160497
782.988896,0.147727,0.156154
783.022365,0.097727,0.061269
783.055833,-0.029545,0.102821
783.089301,0.052273,0.111913
783.122769,0.043182,0.288652
783.156237,0.163636,0.091306
783.189704,0.150000,0.103078
783.223172,0.286364,0.201480
783.256638,-0.079545,0.126922
783.290105,0.093182,0.098668
783.323571,0.004545,0.057541
783.357037,0.120455,0.039545
783.390503,-0.097727,0.076289
783.423969,0.218182,0.094857
783.457434,0.075000,0.041458
783.490899,0.068182,0.051676
783.524364,-0.056818,0.111358
783.557828,0.765909,0.235277
783.591292,0.213636,0.072834
783.624756,0.129545,0.168806
783.658220,0.027273,0.092988
783.691683,0.002273,0.075540
783.725146,0.372727,0.397786
783.758609,0.236364,0.036927
783.792072,0.381818,0.175810
783.825534,0.459091,0.223641
783.858996,0.093182,0.032201
783.892458,0.027273,0.081121
783.925919,0.461364,0.434886
783.959381,-0.040909,0.078828
783.992842,-0.140909,0.067458
784.026302,0.120455,0.023038
784.059763,0.579545,0.305906
784.093223,0.370455,0.270318
784.126683,0.404545,0.059829
784.160142,0.375000,0.298332
784.193601,-0.068182,0.068823
784.227060,0.240909,0.043658
784.260519,0.020455,0.071320
784.293978,0.256818,0.064793
784.327436,0.122727,0.071184
784.360894,0.095455,0.047835
784.394352,0.125000,0.081968
784.427809,-0.075000,0.076492
784.461266,0.386364,0.212193
784.494723,0.447727,0.176144
784.528180,-0.002273,0.085666
784.561636,0.170455,0.092340
784.595092,0.122727,0.054782
784.628548,0.143182,0.071753
784.662003,0.236364,0.073011
784.695458,0.297727,0.285955
784.728913,0.002273,0.033767
784.762368,0.236364,0.039756
784.795823,0.163636,0.079188
784.829277,0.238636,0.051664
784.862731,0.281818,0.110549
784.896184,0.011364,0.121686
784.929637,0.186364,0.251062
784.963091,0.281818,0.110549
784.996543,0.102273,0.116304
785.029996,0.506818,0.216718
785.063448,0.802273,0.278098
785.096900,0.725000,0.167701
785.130352,0.377273,0.223457
785.163803,0.095455,0.073399
785.197254,-0.025000,0.067831
785.230705,-0.140909,0.080321
785.264156,0.193182,0.077097
785.297606,0.234091,0.066368
785.331056,0.336364,0.182470
785.364506,-0.047727,0.023918
785.397955,0.065909,0.113880
785.431405,-0.093182,0.055705
785.464854,-0.311364,0.056442
785.498302,-0.168182,0.041969
785.531751,0.145455,0.044652
785.565199,0.445455,0.250351
785.598647,-0.384091,0.118547
785.632094,-0.329545,0.081968
785.665542,-0.002273,0.085666
785.698989,0.115909,0.089614
785.732436,0.000000,0.035355
785.765882,0.029545,0.170117
785.799328,0.215909,0.040449
785.832774,0.002273,0.056625
785.866220,0.122727,0.113795
785.899665,-0.188636,0.058685
785.933111,0.163636,0.079188
785.966555,-0.009091,0.215178
786.000000,0.122727,0.114022
786.033444,0.545455,0.452084
786.066888,0.572727,0.205854
786.100332,0.593182,0.300402
786.133776,0.068182,0.051676
786.167219,0.156818,0.151008
786.200662,0.288636,0.157077
786.234104,0.304545,0.124046
786.267547,0.106818,0.141143
786.300989,0.143182,0.051464
786.334431,0.484091,0.180145
786.367872,0.454545,0.109422
786.401314,0.093182,0.055705
786.434755,-0.050000,0.025000
786.468196,0.463636,0.213249
786.501636,0.186364,0.088869
786.535076,-0.118182,0.049061
786.568516,0.243182,0.202295
786.601956,0.070455,0.038081
786.635395,0.075000,0.052458
786.668834,0.136364,0.083258
786.702273,-0.075000,0.052458
786.735712,0.279545,0.161135
786.769150,0.254545,0.167751
786.802588,-0.502273,0.097031
786.836026,-0.211364,0.047822
786.869463,0.372727,0.241423
786.902900,0.659091,0.278286
786.936337,0.963636,0.492212
786.969774,0.427273,0.111665
787.003210,0.062121,0.066920
787.036646,0.188636,0.054864
787.070082,0.147727,0.434304
787.103518,0.072727,0.183740
787.136953,0.013636,0.203799
787.170388,0.279545,0.085242
787.203823,0.463636,0.124399
787.237257,0.163636,0.067726
787.270691,-0.193182,0.062272
787.304125,0.168182,0.087049
787.337559,0.820455,0.358203
787.370992,-0.086364,0.155129
787.404425,0.002273,0.056625
787.437858,0.213636,0.072834
787.471290,0.150000,0.394677
787.504723,0.654545,0.448563
787.538155,0.445455,0.180163
787.571586,0.345455,0.142549
787.605018,0.397727,0.215858
787.638449,0.052273,0.073881
787.671880,0.004545,0.085311
787.705310,0.186364,0.064403
787.738741,-0.090909,0.078730
787.772171,0.370455,0.158485
787.805600,0.129545,0.157077
787.839030,0.184091,0.106133
787.872459,0.088636,0.088746
787.905888,0.697727,0.276926
787.939317,0.270455,0.130018
787.972745,0.175000,0.124373
788.006173,0.777273,0.302358
788.039601,0.050000,0.040719
788.073028,0.377273,0.325857
788.106456,0.313636,0.160529
788.139883,0.200000,0.190801
788.173309,0.638636,0.475455
788.206736,0.063636,0.120003
788.240162,0.381818,0.033402
788.273588,0.227273,0.223838
788.307013,0.281818,0.052025
788.340439,0.268182,0.076500
788.373864,-0.025000,0.038753
788.407288,0.613636,0.200760
788.440713,0.056818,0.109392
788.474137,0.147727,0.056442
788.507561,0.406818,0.070078
788.540985,-0.018182,0.076263
788.574408,0.231818,0.081407
788.607831,0.402273,0.071609
788.641254,0.143182,0.024133
788.674677,-0.004545,0.091164
788.708099,-0.604545,0.105161
788.741521,0.493182,0.121389
788.774943,0.318182,0.177039
788.808364,0.379545,0.210184
788.841785,0.584091,0.150151
788.875206,0.070455,0.088978
788.908627,0.168182,0.041969
788.942047,0.070455,0.062850
788.975467,0.145455,0.055017
789.008887,-0.054545,0.103303
789.042306,-0.031818,0.225207
789.075726,0.025000,0.089268
789.109145,0.165909,0.128097
789.142563,0.350000,0.195256
789.175982,-0.234091,0.066368
789.209400,0.002273,0.033767
789.242817,0.302273,0.173603
789.276235,0.136364,0.083258
789.309652,0.527273,0.288430
789.343069,-0.131818,0.125371
789.376486,0.157576,0.036316
789.409902,0.070455,0.038081
789.443319,0.238636,0.055705
789.476735,0.070455,0.088978
789.510150,0.197727,0.260252
789.543565,0.497727,0.278636
789.576980,0.090909,0.181363
789.610395,0.136364,0.123273
789.643810,0.115909,0.037397
789.677224,0.422727,0.371916
789.710638,0.052273,0.073881
789.744052,0.031818,0.085613
789.777465,-0.025000,0.084267
789.810878,-0.070455,0.109769
789.844291,0.150000,0.081597
789.877703,0.095455,0.035428
789.911116,0.361364,0.069113
789.944528,0.520455,0.341233
789.977939,0.443182,0.226211
790.011351,0.075000,0.052458
790.044762,-0.002273,0.056625
790.078173,0.004545,0.067535
790.111583,0.050000,0.025000
790.144994,0.065909,0.060591
790.178404,0.377273,0.148460
790.211813,-0.723485,0.106941
790.245223,0.279545,0.250235
790.278632,0.047727,0.096283
790.312041,0.118182,0.039886
790.345450,0.129545,0.116171
790.378858,0.211364,0.069188
790.412266,0.231818,0.065909
790.445674,0.261364,0.053337
790.479081,0.031818,0.157410
790.512488,0.259091,0.090539
790.545895,-0.115909,0.049311
790.579302,0.140909,0.051975
790.612708,1.109091,0.382426
790.646115,0.572727,0.366029
790.679520,1.370455,0.410621
790.712926,0.627273,0.231283
790.746331,0.563636,0.152391
790.779736,0.247727,0.249325
790.813141,0.252273,0.121133
790.846545,0.209091,0.103353
790.879949,0.134091,0.171448
790.913353,0.145455,0.109516
790.946757,0.268182,0.175501
790.980160,0.240909,0.056178
791.013563,0.322727,0.150978
791.046966,0.118182,0.049061
791.080368,0.184091,0.098143
791.113771,0.363636,0.291424
791.147173,-0.006818,0.109061
791.180574,0.565909,0.340308
791.213976,0.004545,0.057541
791.247377,-0.065909,0.088337
791.280777,0.220455,0.067142
791.314178,0.090909,0.086304
791.347578,0.077273,0.072621
791.380978,0.322727,0.203824
791.414378,0.336364,0.101538
791.447777,-0.234091,0.048359
791.481176,0.193182,0.100380
791.514575,0.129545,0.128821
791.547973,0.318182,0.116287
791.581372,0.163636,0.067726
791.614770,0.079545,0.087041
791.648167,0.422727,0.214373
791.681565,0.470455,0.179887
791.714962,0.095455,0.047835
791.748359,0.120455,0.128700
791.781755,0.147727,0.075404
791.815152,0.077273,0.072621
791.848548,0.434091,0.116171
791.881943,0.236364,0.104298
791.915339,0.313636,0.160529
791.948734,0.361364,0.098877
791.982129,0.311364,0.069411
792.015523,0.122727,0.041845
792.048918,0.361364,0.138109
792.082312,0.072727,0.021076
792.115705,0.279545,0.325046
792.149099,0.281818,0.062902
792.182492,0.236364,0.125351
792.215885,-0.245455,0.123566
792.249278,0.227273,0.197112
792.282670,0.365909,0.267224
792.316062,0.140909,0.038098
792.349454,0.218182,0.083258
792.382845,0.127273,0.166484
792.416236,0.165909,0.019385
792.449627,0.752273,0.350256
792.483018,1.120455,0.332368
792.516408,1.193182,0.364819
792.549798,1.829545,0.297430
792.583188,1.120455,0.545752
792.616578,0.275000,0.187755
792.649967,0.568182,0.283180
792.683356,0.427273,0.129286
792.716745,0.572727,0.212570
792.750133,0.100000,0.086603
792.783521,0.222727,0.106915
792.816909,0.193182,0.062272
792.850296,0.331818,0.096878
792.883684,0.177273,0.141804
792.917071,-0.020455,0.071320
792.950457,0.468182,0.109869
792.983844,0.036364,0.137420
793.017230,0.134091,0.146423
793.050616,0.120455,0.023038
793.084001,-0.120455,0.068286
793.117386,0.163636,0.231595
793.150771,0.000000,0.035355
793.184156,0.261364,0.062272
793.217541,0.579545,0.246554
793.250925,0.268182,0.076500
793.284309,0.609091,0.350236
793.317692,0.147727,0.072469
793.351075,0.115909,0.037397
793.384458,0.395455,0.126520
793.417841,0.256818,0.200886
793.451223,0.243182,0.058509
793.484606,0.243182,0.113971
793.517988,0.209091,0.103353
793.551369,0.234091,0.069560
793.584750,0.456818,0.095475
793.618131,0.759091,0.425559
793.651512,-0.093182,0.032201
793.684893,0.025000,0.021651
793.718273,0.493182,0.109864
793.751653,0.063636,0.118400
793.785032,0.472727,0.194554
793.818411,0.304545,0.124046
793.851790,0.002273,0.092953
793.885169,0.370455,0.197436
793.918548,0.597727,0.274095
793.951926,0.272727,0.123441
793.985304,0.513636,0.397688
794.018681,0.045455,0.039365
794.052059,0.020455,0.115546
794.085436,0.450000,0.286138
794.118812,0.045455,0.039365
794.152189,0.043182,0.052359
794.185565,0.613636,0.245570
794.218941,0.172727,0.087315
794.252317,0.404545,0.132891
794.285692,-0.070455,0.098563
794.319067,0.502273,0.180030
794.352442,0.656818,0.274471
794.385816,1.727273,0.352368
794.419190,3.815909,0.281862
794.452564,3.760606,0.163320
794.485938,1.270455,0.370425
794.519311,0.793182,0.270929
794.552684,0.136364,0.123273
794.586057,-0.165909,0.037534
794.619429,0.161364,0.112741
794.652802,0.077273,0.063433
794.686173,0.211364,0.073390
794.719545,-0.213636,0.060174
794.752916,-0.359091,0.090139
794.786287,0.420455,0.240273
794.819658,0.638636,0.401963
794.853029,0.352273,0.334938
794.886399,-0.061364,0.111867
794.919769,0.027273,0.053203
794.953138,0.295455,0.255871
794.986508,-0.204545,0.109398
795.019877,0.490909,0.295332
795.053245,-0.015909,0.125407
795.086614,0.293182,0.210037
795.119982,0.331818,0.038770
795.153350,0.156818,0.142490
795.186718,0.022727,0.049533
795.220085,0.738636,0.254614
795.253452,0.215909,0.024557
795.286819,0.556818,0.183497
795.320185,0.184091,0.071175
795.353551,0.288636,0.226735
795.386917,0.300000,0.208646
795.420283,0.297727,0.128379
795.453648,0.179545,0.194245
795.487013,0.227273,0.173503
795.520378,-0.118182,0.049061
795.553742,0.120455,0.023038
795.587107,0.115909,0.089614
795.620471,0.390909,0.281543
795.653834,0.900000,0.388337
795.687197,0.168182,0.041969
795.720560,0.095455,0.047835
795.753923,0.150000,0.107972
795.787286,0.518182,0.118487
795.820648,0.727273,0.369288
795.854010,0.181818,0.269508
795.887371,0.243939,0.164899
795.920733,0.381818,0.095994
795.954094,0.025000,0.067831
795.987454,0.070455,0.020423
796.020815,0.629545,0.209470
796.054175,0.279545,0.096604
796.087535,0.165909,0.037534
796.120894,0.354545,0.121032
796.154254,0.206818,0.159654
796.187613,0.434091,0.100637
796.220971,0.938636,0.285919
796.254330,2.406818,0.438529
796.287688,6.415909,0.759760
796.321046,11.397727,1.152380
796.354403,7.231818,0.519103
796.387761,2.018182,0.314212
796.421118,0.822727,0.581432
796.454474,0.700000,0.239425
796.487831,0.736364,0.496496
796.521187,0.179545,0.140114
796.554543,0.365909,0.131598
796.587898,0.122727,0.154328
796.621254,0.393182,0.156187
796.654609,0.181818,0.211644
796.687963,0.561364,0.273264
796.721318,0.102273,0.342803
796.754672,-0.181818,0.139694
796.788026,0.209091,0.090738
796.821379,0.227273,0.141786
796.854732,0.338636,0.105694
796.888085,0.081818,0.213733
796.921438,0.215909,0.313412
796.954790,-0.025000,0.140004
796.988142,0.536364,0.222843
797.021494,0.334091,0.055982
797.054846,0.056818,0.228415
797.088197,-0.118182,0.039886
797.121548,0.331818,0.103926
797.154899,0.588636,0.188989
797.188249,0.145455,0.069829
797.221599,0.045455,0.099066
797.254949,0.265909,0.055798
797.288298,0.277273,0.130973
797.321648,0.443182,0.183497
797.354996,-0.268182,0.135089
797.388345,0.718182,0.276358
797.421693,0.577273,0.185989
797.455041,0.209091,0.090738
797.488389,0.072727,0.041161
797.521737,0.265909,0.093341
797.555084,0.563636,0.133956
797.588431,-0.188636,0.074230
797.621777,-0.100000,0.086603
797.655124,-0.127273,0.117963
797.688470,0.938636,0.341687
797.721815,0.302273,0.236219
797.755161,-0.054545,0.125844
797.788506,0.313636,0.046075
797.821851,0.215909,0.095583
797.855196,0.650000,0.115463
797.888540,0.443182,0.137622
797.921884,0.013636,0.113659
797.955228,-0.052273,0.102266
797.988571,0.290909,0.208621
798.021914,0.488636,0.221013
798.055257,-0.206818,0.080377
798.088599,1.084091,0.192401
798.121942,1.218182,0.530242
798.155284,5.300000,0.153540
798.188625,8.870455,1.244767
798.221967,15.190909,0.826454
798.255308,8.081818,1.026236
798.288649,3.350000,0.503095
798.321989,1.490909,0.405387
798.355329,0.779545,0.092953
798.388669,0.106818,0.123916
798.422009,1.038636,0.417420
798.455348,0.436364,0.148581
798.488687,0.056818,0.120278
798.522026,0.215909,0.024557
798.555365,0.656818,0.369923
798.588703,0.479545,0.240981
798.622041,0.563636,0.183149
798.655378,0.868182,0.224747
798.688716,0.425000,0.215643
798.722053,0.311364,0.085545
798.755389,0.375000,0.272033
798.788726,0.090909,0.086304
798.822062,0.090909,0.153607
798.855398,0.279545,0.104712
798.888733,0.527273,0.116642
798.922069,0.609091,0.152358
798.955404,0.240909,0.046075
798.988738,0.384091,0.136832
799.022073,0.361364,0.103970
799.055407,0.452273,0.036699
799.088741,0.211364,0.159006
799.122074,0.456818,0.077565
799.155408,0.756818,0.466229
799.188741,0.484091,0.185791
799.222073,0.250000,0.130894
799.255406,0.261364,0.130929
799.288738,0.561364,0.250256
799.322069,0.268182,0.076500
799.355401,0.404545,0.271389
799.388732,0.077273,0.094993
799.422063,0.913636,0.299526
799.455394,0.079545,0.108205
799.488724,0.720455,0.189098
799.522054,0.470455,0.165406
799.555384,0.354545,0.163289
799.588713,0.256818,0.177458
799.622042,-0.118182,0.116863
799.655371,0.231818,0.217862
799.688700,0.161364,0.083343
799.722028,0.309091,0.118007
799.755356,0.275000,0.163459
799.788684,0.456818,0.283616
799.822011,0.431818,0.221226
799.855338,0.309091,0.148963
799.888665,0.347727,0.119242
799.921992,0.529545,0.269419
799.955318,0.809091,0.293490
799.988644,1.213636,0.267246
800.021969,1.502273,0.112603
800.055295,5.346212,0.798320
800.088620,20.350000,0.564676
800.121945,30.963636,1.502574
800.155269,26.571970,1.158097
800.188593,7.552273,0.884388
800.221917,2.000000,0.658926
800.255241,0.379545,0.133623
800.288564,0.711364,0.187093
800.321887,0.825000,0.242477
800.355210,0.165909,0.062521
800.388532,0.700000,0.189524
800.421854,0.184091,0.196361
800.455176,0.088636,0.211165
800.488498,0.452273,0.109298
800.521819,0.004545,0.091164
800.555140,-0.127273,0.172128
800.588461,0.329545,0.313115
800.621781,-0.004545,0.087522
800.655101,0.045455,0.192472
800.688421,0.075000,0.076492
800.721740,0.547727,0.229137
800.755060,0.022727,0.040465
800.788379,0.325000,0.227190
800.821697,0.252273,0.164530
800.855015,0.638636,0.244830
800.888334,0.181818,0.224621
800.921651,0.406818,0.158355
800.954969,-0.086364,0.116974
800.988286,0.238636,0.124912
801.021603,0.422727,0.159042
801.054919,1.025000,0.450153
801.088235,0.315909,0.115502
801.121551,0.072727,0.118705
801.154867,0.195455,0.093624
801.188183,0.261364,0.066910
801.221498,0.243182,0.113971
801.254812,0.375000,0.188331
801.288127,-0.022727,0.060856
801.321441,0.443182,0.226211
801.354755,1.177273,0.408516
801.388069,0.470455,0.234705
801.421382,-0.602273,0.149323
801.454695,0.709091,0.376025
801.488008,0.331818,0.075069
801.521320,0.400000,0.196850
801.554632,0.725000,0.252802
801.587944,0.634091,0.246931
801.621256,0.445455,0.087256
801.654567,0.545455,0.227976
801.687878,0.147727,0.109014
801.721189,0.072727,0.108140
801.754499,0.202273,0.180975
801.787809,0.052273,0.086744
801.821119,0.454545,0.164235
801.854428,0.725000,0.309231
801.887737,1.100000,0.340955
801.921046,1.427273,0.201825
801.954355,4.631818,0.320793
801.987663,15.950000,0.635019
802.020971,38.822727,1.283383
802.054279,54.256818,2.033999
802.087586,25.393182,1.264639
802.120894,5.313636,0.732203
802.154200,2.015909,0.717422
802.187507,0.650000,0.178536
802.220813,0.511364,0.230396
802.254119,0.718182,0.175986
802.287425,0.068182,0.122748
802.320730,0.493182,0.142961
802.354035,-0.088636,0.206815
802.387340,0.463636,0.194740
802.420644,0.563636,0.172608
802.453949,0.363636,0.149517
802.487252,0.188636,0.058685
802.520556,0.152273,0.122110
802.553859,0.772727,0.274219
802.587162,0.265909,0.161584
802.620465,0.152273,0.113335
802.653767,0.004545,0.152679
802.687069,0.440909,0.250629
802.720371,0.422727,0.069272
802.753673,0.554545,0.138543
802.786974,0.538636,0.232161
802.820275,0.406818,0.141106
802.853576,0.293182,0.178098
802.886876,0.656818,0.282228
802.920176,0.329545,0.198870
802.953476,0.415909,0.222365
802.986775,0.865909,0.346132
803.020074,1.356818,0.505419
803.053373,0.477273,0.111410
803.086672,0.309091,0.132950
803.119970,0.172727,0.106649
803.153268,0.404545,0.116531
803.186565,0.254545,0.192928
803.219863,0.413636,0.142095
803.253160,0.468182,0.242969
803.286457,0.720455,0.381349
803.319753,0.895455,0.441991
803.353049,0.225000,0.206490
803.386345,0.386364,0.176089
803.419641,1.015909,0.425290
803.452936,0.652273,0.316365
803.486231,0.740909,0.449845
803.519525,0.690909,0.323271
803.552820,0.143182,0.195147
803.586114,1.084091,0.193472
803.619408,0.486364,0.180120
803.652701,0.404545,0.059829
803.685994,0.227273,0.175192
803.719287,0.411364,0.198532
803.752580,0.311364,0.129301
803.785872,0.077273,0.063433
803.819164,0.677273,0.163399
803.852456,2.397727,0.441405
803.885747,5.440152,0.360494
803.919038,27.813636,1.111010
803.952329,66.131818,2.241505
803.985620,92.411364,3.770464
804.018910,26.243939,0.353536
804.052200,7.204545,0.822197
804.085489,1.461364,0.638401
804.118779,0.684091,0.255424
804.152068,0.388636,0.115233
804.185357,0.409091,0.188787
804.218645,0.268182,0.097991
804.251933,1.284091,0.287935
804.285221,0.231818,0.098622
804.318508,0.495455,0.270550
804.351796,0.775000,0.225112
804.385083,0.845455,0.251996
804.418369,0.329545,0.219183
804.451656,0.825000,0.415124
804.484942,0.954545,0.143236
804.518227,0.031818,0.165317
804.551513,0.238636,0.147653
804.584798,0.425000,0.221364
804.618083,1.138636,0.365696
804.651367,0.684091,0.197750
804.684652,0.768182,0.349461
804.717936,0.304545,0.218241
804.751219,0.968182,0.318677
804.784503,0.313636,0.058077
804.817786,1.013636,0.323471
804.851068,0.793182,0.278377
804.884351,0.604545,0.231205
804.917633,1.231818,0.244559
804.950915,1.600000,0.554061
804.984196,1.300000,0.218418
805.017478,0.456818,0.070592
805.050759,1.040909,0.544027
805.084039,0.613636,0.263333
805.117320,0.681818,0.201902
805.150600,0.454545,0.150619
805.183879,0.852273,0.345191
805.217159,0.828030,0.032521
805.250438,0.320455,0.144649
805.283717,-0.145455,0.106261
805.316995,0.377273,0.112884
805.350274,0.437121,0.101845
805.383552,0.770455,0.134893
805.416829,0.554545,0.282605
805.450107,0.561364,0.181488
805.483384,1.159091,0.331514
805.516660,1.027273,0.506181
805.549937,1.027273,0.394919
805.583213,0.865909,0.173901
805.616489,0.543182,0.204807
805.649764,0.965909,0.264739
805.683040,0.711364,0.288491
805.716315,0.190909,0.146798
805.749589,0.938636,0.124954
805.782864,4.011364,0.559879
805.816138,15.284091,0.546905
805.849411,66.018182,2.283110
805.882685,159.050000,0.868554
805.915958,223.409848,4.320318
805.949231,109.956818,2.403719
805.982504,22.092424,1.380023
806.015776,2.993939,0.322818
806.049048,1.747727,0.459994
806.082319,0.595455,0.117941
806.115591,0.368182,0.130420
806.148862,1.129545,0.372566
806.182133,0.697727,0.257799
806.215403,0.827273,0.394408
806.248673,0.697727,0.112878
806.281943,0.336364,0.182470
806.315213,1.902273,0.443588
806.348482,0.295455,0.240984
806.381751,0.638636,0.317635
806.415019,0.368182,0.325714
806.448288,0.770455,0.185791
806.481556,0.963636,0.188403
806.514823,0.556818,0.117365
806.548091,0.611364,0.234551
806.581358,0.902273,0.288330
806.614625,0.679545,0.301535
806.647891,0.331818,0.144224
806.681158,0.486364,0.203520
806.714424,1.347727,0.558614
806.747689,0.481818,0.133376
806.780955,0.318182,0.268028
806.814220,0.363636,0.157820
806.847484,0.663636,0.216423
806.880749,1.038636,0.411964
806.914013,0.197727,0.153080
806.947277,0.188636,0.126269
806.980540,1.084091,0.137246
807.013803,0.672727,0.198574
807.047066,0.672727,0.147745
807.080329,1.111364,0.360876
807.113591,0.427273,0.201825
807.146853,0.547727,0.204555
807.180115,0.252273,0.118634
807.213376,0.365909,0.183807
807.246637,0.536364,0.195982
807.279898,0.220455,0.153754
807.313159,0.418182,0.133917
807.346419,0.315909,0.184508
807.379679,0.611364,0.219112
807.412938,0.831818,0.346671
807.446198,0.895455,0.247832
807.479457,0.690909,0.177564
807.512715,0.684091,0.191163
807.545974,0.577273,0.227034
807.579232,0.934091,0.305686
807.612490,0.647727,0.211092
807.645747,1.584091,0.213404
807.679004,1.177273,0.186350
807.712261,1.740909,0.396114
807.745518,9.900000,0.718649
807.778774,53.367424,2.009997
807.812030,212.390909,5.161477
807.845285,362.668182,7.220815
807.878541,304.563636,5.075666
807.911796,81.729545,2.775205
807.945051,15.334091,0.431619
807.978305,2.150758,0.194838
808.011559,0.868182,0.376334
808.044813,0.300000,0.168917
808.078066,0.693182,0.232894
808.111320,0.450000,0.336018
808.144573,0.952273,0.100688
808.177825,1.118182,0.279629
808.211078,0.479545,0.042564
808.244330,1.215909,0.325157
808.277581,1.134091,0.238309
808.310833,1.282576,0.274785
808.344084,1.056818,0.167269
808.377335,1.247727,0.259158
808.410585,1.970455,0.484825
808.443835,1.263636,0.062490
808.477085,0.925000,0.235057
808.510335,0.681818,0.450275
808.543584,1.902273,0.537800
808.576833,1.209091,0.256868
808.610082,1.452273,0.503627
808.643330,0.093182,0.247015
808.676578,0.995455,0.288636
808.709826,0.834091,0.365427
808.743073,0.461364,0.144363
808.776320,1.190909,0.306304
808.809567,0.731818,0.296963
808.842814,1.581818,0.309892
808.876060,1.795455,0.133357
808.909306,1.004545,0.254088
808.942552,0.956818,0.266896
808.975797,0.904545,0.395291
809.009042,1.095455,0.249576
809.042287,0.409091,0.121330
809.075531,1.111364,0.183863
809.108775,0.750000,0.270703
809.142019,0.847727,0.111404
809.175262,2.313636,0.316628
809.208506,1.525000,0.166713
809.241748,0.406818,0.096497
809.274991,1.461364,0.288688
809.308233,1.527273,0.540202
809.341475,1.188636,0.335893
809.374717,1.356061,0.289779
809.407958,1.940909,0.303109
809.441199,1.422727,0.172023
809.474440,0.152273,0.113335
809.507680,0.554545,0.113999
809.540921,0.831818,0.149742
809.574160,0.979545,0.520711
809.607400,0.688636,0.310265
809.640639,1.836364,0.499463
809.673878,3.465909,0.572740
809.707117,19.013636,1.896998
809.740355,92.254545,1.001363
809.773593,312.906818,10.340131
809.806831,527.920455,16.253790
809.840068,309.997727,6.102755
809.873305,73.740152,2.495722
809.906542,11.006818,0.852145
809.939778,2.963636,0.391490
809.973015,1.190909,0.689247
810.006250,1.868182,0.350538
810.039486,2.540909,0.416554
810.072721,1.772727,0.285840
810.105956,1.011364,0.530898
810.139191,1.313636,0.331795
810.172425,1.854545,0.413212
810.205659,0.859091,0.383633
810.238893,2.572727,0.689854
810.272126,2.963636,0.806175
810.305359,2.261364,0.386569
810.338592,3.172727,0.419206
810.371825,3.613636,0.234466
810.405057,3.761364,0.386476
810.438289,3.361364,0.515828
810.471520,3.627273,0.931330
810.504751,3.813636,1.152008
810.537982,1.742424,0.119183
810.571213,1.554545,0.425953
810.604443,2.209091,0.585447
810.637673,1.654545,0.209708
810.670903,1.102273,0.256191
810.704133,2.002273,0.401860
810.737362,1.170455,0.265537
810.770591,1.340909,0.177142
810.803819,0.513636,0.261699
810.837047,1.159091,0.352111
810.870275,0.340909,0.166902
810.903503,0.684091,0.128861
810.936730,0.481818,0.239511
810.969957,1.397727,0.351655
811.003184,0.890909,0.334439
811.036410,1.702273,0.391693
811.069636,2.040909,0.543458
811.102862,1.127273,0.242725
811.136087,0.695455,0.222808
811.169312,1.765909,0.706247
811.202537,0.468182,0.169116
811.235762,1.120455,0.313165
811.268986,1.356818,0.522444
811.302210,1.254545,0.464404
811.335433,0.893182,0.403015
811.368656,1.234091,0.433589
811.401879,2.313636,0.505921
811.435102,1.761364,0.504467
811.468324,2.550000,0.228214
811.501546,1.387121,0.280226
811.534768,1.075000,0.573506
811.567990,2.745455,0.794005
811.601211,1.438636,0.229498
811.634432,2.881818,0.940030
811.667652,13.727273,1.006179
811.700872,50.403030,1.365666
811.734092,190.613636,1.320662
811.767312,302.613636,4.884129
811.800531,202.277273,6.553279
811.833750,42.718939,3.497178
811.866969,5.718939,0.423911
811.900187,1.790909,0.080930
811.933405,1.006818,0.544615
811.966623,0.164394,0.108142
811.999840,0.756818,0.104515
812.033057,1.169697,0.084611
812.066274,0.804545,0.302341
812.099490,1.256818,0.360589
812.132707,1.886364,0.538291
812.165923,1.543182,0.346028
812.199138,1.715909,0.274151
812.232353,1.254545,0.258672
812.265568,1.909091,0.325183
812.298783,0.488636,0.211458
812.331997,1.734091,0.281917
812.365211,1.990909,0.416734
812.398425,1.109091,0.251689
812.431638,1.415909,0.447426
812.464851,1.113636,0.068823
812.498064,0.727273,0.128404
812.531277,0.790909,0.419772
812.564489,1.738636,0.651249
812.597701,1.186364,0.485380
812.630912,0.761364,0.051664
812.664123,1.261364,0.499022
