#{
#    "background_file": "Backgrounds\\\\bg_785.995nm_13bin_219st_244en_10.0s_110g_4x_13_seq.txt",
#    "ccd_image_settings": [
#        1,
#        13,
#        1,
#        1600,
#        219,
#        244
#    ],
#    "ccd_temperature": "-87",
#    "cdRatios": {
#        "mean": 0.9429517408275251,
#        "std": 0.007855237130557309
#    },
#    "center_lambda": 786.0,
#    "comments": "",
#    "dark_region": 85.75972599557306,
#    "date": "10/22/20 18:01:24PM",
#    "eff_field": 1.5,
#    "exposure": 10.0,
#    "fel_lambda": "15.0",
#    "fel_pol": "H",
#    "fel_pulses": 43,
#    "fel_pyro_cal": "0.012",
#    "fel_reprate": "1.07",
#    "fel_transmission": "1.0",
#    "fel_transmission_fits": {
#        "A": 1.0,
#        "C": 0.0,
#        "Mu": 0.0
#    },
#    "fieldInt": {
#        "mean": 5075.956473484848,
#        "std": 184.22726972304912
#    },
#    "fieldStrength": {
#        "mean": 32.683151515151515,
#        "std": 0.6017516072470954
#    },
#    "fpTime": {
#        "mean": 1.1246547803705917,
#        "std": 0.057047839240243654
#    },
#    "gain": 110,
#    "grating": 3,
#    "images_in_sequence": [
#        "hsg_820nm_c123_a00_HAna561.txt",
#        "hsg_820nm_c123_a00_HAna562.txt",
#        "hsg_820nm_c123_a00_HAna563.txt",
#        "hsg_820nm_c123_a00_HAna564.txt"
#    ],
#    "nir_lambda": "819.98",
#    "nir_pola": "00",
#    "nir_polg": "0",
#    "nir_power": "100.0",
#    "pulseEnergies": {
#        "mean": 1.5550852272727274,
#        "std": 0.06385372914973633
#    },
#    "pyroVoltage": {
#        "mean": 0.13748726185693516,
#        "std": 0.0064178990572368025
#    },
#    "rotatorAngle": 180.0,
#    "sample_Temp": "55",
#    "sample_name": "L001218.C1",
#    "series": "820_Fan",
#    "slits": "60",
#    "spec_step": "",
#    "window_trans": 0.92,
#    "y_max": 2,
#    "y_min": 1
#}
#
#
#
#
#
#
#
#
#
#
#
#
#
#
#
#
#
#
#
#
#
#
#
#
#
#
Wavelength,Signal,error
nm,arb. u.,arb.u.
Wavelength,820_Fan,error
759.194366,0.095455,0.107637
759.228015,0.602273,0.258819
759.261663,0.584091,0.064952
759.295311,0.661364,0.222341
759.328959,0.145455,0.088374
759.362607,0.572727,0.168673
759.396254,-0.186364,0.032381
759.429901,0.368182,0.131012
759.463548,0.528030,0.162158
759.497194,0.220455,0.182339
759.530841,0.279545,0.179052
759.564487,0.029545,0.080249
759.598133,0.062121,0.080898
759.631779,0.511364,0.193766
759.665424,0.625000,0.165749
759.699069,0.045455,0.068182
759.732714,0.618182,0.293596
759.766359,0.377273,0.121692
759.800003,0.795455,0.323614
759.833648,0.115909,0.049311
759.867292,0.129545,0.166651
759.900935,0.350000,0.149154
759.934579,0.050000,0.095427
759.968222,0.154545,0.154612
760.001865,0.238636,0.127936
760.035508,0.520455,0.276590
760.069151,0.186364,0.096504
760.102793,0.209091,0.018741
760.136435,0.106818,0.197306
760.170077,0.065909,0.060591
760.203718,0.093182,0.085060
760.237360,0.068182,0.225848
760.271001,0.336364,0.216900
760.304642,0.124242,0.018741
760.338283,-0.124242,0.018741
760.371923,0.115909,0.067065
760.405563,0.115909,0.019117
760.439203,0.124242,0.037206
760.472843,0.488636,0.121729
760.506482,0.136364,0.118094
760.540122,0.372727,0.085401
760.573761,0.511364,0.177050
760.607399,0.118182,0.088257
760.641038,0.354545,0.131975
760.674676,0.155303,0.092842
760.708314,0.479545,0.150597
760.741952,0.481818,0.183908
760.775589,-0.115909,0.019117
760.809227,-0.062121,0.037137
760.842864,0.143182,0.106522
760.876501,-0.062121,0.049114
760.910137,0.062121,0.018603
760.943774,0.393182,0.179052
760.977410,0.418182,0.074412
761.011046,0.440909,0.306835
761.044681,0.563636,0.131897
761.078317,0.234091,0.052654
761.111952,0.248485,0.130003
761.145587,0.209091,0.066959
761.179221,0.031061,0.037119
761.212856,-0.375000,0.040576
761.246490,0.248485,0.019285
761.280124,0.248485,0.037483
761.313758,0.431818,0.259877
761.347391,0.550000,0.220852
761.381024,-0.020455,0.134471
761.414657,-0.186364,0.032381
761.448290,0.068182,0.037689
761.481923,0.277273,0.077506
761.515555,0.072727,0.041161
761.549187,-0.217424,0.103422
761.582819,0.045455,0.122390
761.616450,-0.415909,0.046396
761.650082,0.050000,0.175501
761.683713,-0.002273,0.107102
761.717344,0.025000,0.059732
761.750974,-0.063636,0.120003
761.784605,-0.281818,0.108806
761.818235,0.136364,0.093707
761.851865,0.062121,0.121692
761.885494,-0.231818,0.177258
761.919124,0.411364,0.157963
761.952753,-0.025000,0.059732
761.986382,0.070455,0.020423
762.020010,0.415909,0.072469
762.053639,0.062121,0.066920
762.087267,0.286364,0.132268
762.120895,0.550000,0.236658
762.154523,0.217424,0.081017
762.188150,0.113636,0.117546
762.221777,0.136364,0.068182
762.255404,0.211364,0.114243
762.289031,0.281818,0.180278
762.322658,0.231818,0.049948
762.356284,0.752273,0.544178
762.389910,-0.209091,0.018741
762.423536,0.209091,0.133840
762.457161,0.145455,0.134687
762.490786,0.229545,0.171146
762.524411,0.156818,0.191918
762.558036,0.193182,0.109440
762.591661,0.279545,0.179052
762.625285,-0.490909,0.063960
762.658909,0.150000,0.226670
762.692533,0.155303,0.098248
762.726157,0.377273,0.080898
762.759780,0.062121,0.121692
762.793403,0.352273,0.120663
762.827026,0.093182,0.001968
762.860649,0.248485,0.103453
762.894271,0.155303,0.151929
762.927893,-0.124242,0.049167
762.961515,0.222727,0.168289
762.995137,0.402273,0.204504
763.028758,-0.052273,0.086744
763.062379,0.000000,0.055670
763.096000,0.181818,0.184637
763.129621,0.231818,0.038233
763.163241,-0.140909,0.051975
763.196862,0.002273,0.072612
763.230481,0.318182,0.122390
763.264101,0.090909,0.055670
763.297721,0.597727,0.323788
763.331340,0.290909,0.191342
763.364959,0.604545,0.158554
763.398578,-0.334091,0.206140
763.432196,0.093182,0.096444
763.465814,0.395455,0.325143
763.499432,0.350000,0.177607
763.533050,0.745455,0.335933
763.566668,0.286364,0.200554
763.600285,0.000000,0.140100
763.633902,0.217424,0.081017
763.667519,0.465909,0.170360
763.701135,0.155303,0.080953
763.734752,0.277273,0.053926
763.768368,0.890909,0.399948
763.801984,0.390909,0.340060
763.835599,0.372727,0.111618
763.869215,0.704545,0.280891
763.902830,0.368182,0.191813
763.936444,0.145455,0.088374
763.970059,0.022727,0.049533
764.003673,0.961364,0.616813
764.037288,0.800000,0.253570
764.070901,0.038636,0.360188
764.104515,0.538636,0.279709
764.138128,0.743182,0.183187
764.171742,0.245455,0.204141
764.205354,0.165909,0.053626
764.238967,0.168182,0.074239
764.272580,0.031061,0.129899
764.306192,0.188636,0.037119
764.339804,0.456818,0.168868
764.373415,0.143182,0.147233
764.407027,0.206818,0.048252
764.440638,0.434091,0.111358
764.474249,0.213636,0.072834
764.507860,-0.400000,0.075788
764.541470,0.229545,0.049311
764.575080,0.256818,0.022355
764.608690,0.084091,0.173782
764.642300,-0.188636,0.087041
764.675909,-0.090909,0.115887
764.709519,0.377273,0.066920
764.743128,0.163636,0.162114
764.776736,0.322727,0.073399
764.810345,0.002273,0.056625
764.843953,-0.120455,0.071392
764.877561,0.225000,0.205437
764.911169,0.281818,0.059786
764.944776,0.124242,0.103353
764.978384,0.145455,0.099378
765.011991,0.002273,0.046619
765.045598,0.136364,0.050820
765.079204,0.893182,0.561675
765.112810,0.277273,0.115059
765.146416,0.027273,0.053203
765.180022,0.356818,0.127895
765.213628,-0.002273,0.107102
765.247233,0.434091,0.150769
765.280838,0.436364,0.131897
765.314443,1.081818,0.371589
765.348048,-0.002273,0.046619
765.381652,-0.052273,0.151725
765.415256,0.279545,0.140225
765.448860,0.111364,0.088629
765.482463,-0.004545,0.134129
765.516067,0.622727,0.241241
765.549670,0.209091,0.112907
765.583273,0.438636,0.090246
765.616875,0.190909,0.077806
765.650478,-0.027273,0.139138
765.684080,0.159091,0.087286
765.717682,0.420455,0.242328
765.751283,-0.093182,0.111358
765.784885,0.181818,0.132522
765.818486,0.356818,0.127895
765.852087,0.352273,0.244978
765.885687,0.088636,0.140850
765.919288,0.213636,0.157901
765.952888,0.217424,0.067065
765.986488,0.118182,0.068484
766.020087,0.377273,0.407491
766.053687,0.227273,0.196824
766.087286,0.461364,0.059559
766.120885,-0.090909,0.032141
766.154484,0.111364,0.104663
766.188082,0.393182,0.160815
766.221680,0.062121,0.066920
766.255278,-0.045455,0.050820
766.288876,0.352273,0.120663
766.322473,0.825000,0.359686
766.356070,0.229545,0.121771
766.389667,0.206818,0.206440
766.423264,-0.050000,0.229118
766.456860,-0.062121,0.049114
766.490457,0.279545,0.195597
766.524053,-0.047727,0.051363
766.557648,0.790909,0.317109
766.591244,0.234091,0.069560
766.624839,-0.217424,0.081017
766.658434,0.184091,0.054770
766.692029,0.124242,0.037206
766.725623,0.747727,0.280576
766.759217,0.138636,0.081652
766.792811,-0.304545,0.042336
766.826405,-0.068182,0.087286
766.859999,0.322727,0.073399
766.893592,0.086364,0.118596
766.927185,0.747727,0.362646
766.960777,-0.322727,0.073399
766.994370,0.629545,0.330498
767.027962,0.621212,0.207055
767.061554,0.093182,0.115904
767.095146,0.804545,0.435433
767.128737,0.252273,0.247307
767.162329,-0.029545,0.112420
767.195920,0.020455,0.060163
767.229510,0.403788,0.049832
767.263101,0.184091,0.115457
767.296691,0.095455,0.080128
767.330281,0.022727,0.103528
767.363871,-0.025000,0.087751
767.397460,0.093182,0.032201
767.431050,0.093182,0.064313
767.464639,0.388636,0.157635
767.498227,0.229545,0.074369
767.531816,0.095455,0.073399
767.565404,-0.496970,0.021320
767.598992,0.206818,0.073671
767.632580,0.370455,0.114694
767.666168,0.000000,0.000000
767.699755,0.263636,0.148894
767.733342,0.256818,0.081842
767.766929,0.155303,0.049206
767.800515,-0.025000,0.038753
767.834101,0.025000,0.059732
767.867687,-0.062121,0.049114
767.901273,-0.045455,0.068182
767.934859,-0.240909,0.166189
767.968444,-0.025000,0.067831
768.002029,0.229545,0.074369
768.035614,0.163636,0.081565
768.069198,0.247727,0.246366
768.102783,-0.554545,0.080417
768.136367,0.443182,0.177778
768.169950,-0.138636,0.075060
768.203534,0.002273,0.072612
768.237117,0.575000,0.313988
768.270700,0.147727,0.151929
768.304283,0.372727,0.210911
768.337866,-0.050000,0.053926
768.371448,0.309091,0.154679
768.405030,0.145455,0.118357
768.438612,0.155303,0.074299
768.472193,0.231818,0.038233
768.505775,0.293182,0.194988
768.539356,0.254545,0.170803
768.572936,0.145455,0.075788
768.606517,0.050000,0.135661
768.640097,0.093182,0.147303
768.673677,0.911364,0.611616
768.707257,0.093182,0.111358
768.740836,0.227273,0.122390
768.774416,0.248485,0.067113
768.807995,0.279545,0.225066
768.841574,0.413636,0.157508
768.875152,0.834091,0.345849
768.908730,0.025000,0.059732
768.942308,0.020455,0.060163
768.975886,0.065909,0.113880
769.009464,0.275000,0.156814
769.043041,0.234091,0.076627
769.076618,0.204545,0.067228
769.110195,0.090909,0.085038
769.143771,0.143182,0.071753
769.177348,0.161364,0.141216
769.210924,-0.111364,0.088629
769.244499,0.310606,0.049533
769.278075,0.297727,0.151282
769.311650,0.204545,0.126029
769.345225,0.143182,0.096337
769.378800,0.213636,0.154596
769.412375,0.184091,0.054770
769.445949,-0.002273,0.132925
769.479523,0.134091,0.159913
769.513097,0.502273,0.280300
769.546670,0.140909,0.025206
769.580243,-0.120455,0.084634
769.613816,0.496970,0.130321
769.647389,0.404545,0.180721
769.680962,0.020455,0.099085
769.714534,0.156818,0.219536
769.748106,0.320455,0.112511
769.781678,0.209091,0.049167
769.815249,0.131818,0.148042
769.848820,-0.100000,0.092375
769.882391,0.090909,0.055670
769.915962,-0.022727,0.019682
769.949533,-0.181818,0.064282
769.983103,0.215909,0.090017
770.016673,0.122727,0.082165
770.050243,0.138636,0.075060
770.083812,-0.186364,0.085129
770.117381,-0.062121,0.037137
770.150950,0.403788,0.049832
770.184519,-0.047727,0.023918
770.218088,0.047727,0.051363
770.251656,0.495455,0.543572
770.285224,0.018182,0.131897
770.318791,-0.047727,0.023918
770.352359,0.320455,0.170844
770.385926,0.124242,0.049167
770.419493,0.711364,0.304891
770.453060,-0.100000,0.164706
770.486626,0.315909,0.242562
770.520192,0.159091,0.067228
770.553758,0.193182,0.145858
770.587324,0.186364,0.032381
770.620890,0.045455,0.050820
770.654455,0.352273,0.193098
770.688020,0.418182,0.148547
770.721584,0.227273,0.171587
770.755149,0.341667,0.098458
770.788713,0.268182,0.321436
770.822277,0.138636,0.067831
770.855841,-0.168182,0.191058
770.889404,0.134091,0.123456
770.922967,0.113636,0.133975
770.956530,0.520455,0.294498
770.990093,0.088636,0.073320
771.023655,0.247727,0.270357
771.057217,0.188636,0.049101
771.090779,0.002273,0.056625
771.124341,-0.286364,0.240383
771.157902,0.093182,0.085060
771.191463,0.481818,0.156604
771.225024,0.322727,0.047835
771.258585,-0.065909,0.051363
771.292145,0.275000,0.110426
771.325705,-0.043182,0.076424
771.359265,0.231818,0.049948
771.392825,0.186364,0.032381
771.426384,0.248485,0.092932
771.459943,0.341667,0.067295
771.493502,0.350000,0.075617
771.527061,0.279545,0.055982
771.560619,-0.310606,0.081153
771.594177,0.118182,0.088257
771.627735,0.165909,0.042927
771.661293,0.277273,0.131799
771.694850,-0.031061,0.080890
771.728407,0.227273,0.159091
771.761964,0.047727,0.113880
771.795521,0.329545,0.206665
771.829077,0.045455,0.050820
771.862633,-0.161364,0.036699
771.896189,0.043182,0.069337
771.929744,-0.188636,0.103322
771.963300,0.256818,0.050654
771.996855,0.252273,0.080055
772.030409,0.370455,0.214971
772.063964,0.347727,0.112190
772.097518,-0.052273,0.201451
772.131072,0.040909,0.173131
772.164626,0.134091,0.095095
772.198180,-0.070455,0.020423
772.231733,-0.045455,0.068182
772.265286,-0.043182,0.076424
772.298839,0.290909,0.165270
772.332391,0.286364,0.147061
772.365943,0.540909,0.098622
772.399495,1.290909,0.165270
772.433047,1.275000,0.535616
772.466598,0.300000,0.185028
772.500150,0.165909,0.077298
772.533701,0.663636,0.199016
772.567251,-0.000000,0.147290
772.600802,0.062121,0.066920
772.634352,0.025000,0.021651
772.667902,0.217424,0.074369
772.701452,-0.045455,0.104149
772.735001,-0.115909,0.019117
772.768550,0.229545,0.182820
772.802099,0.129545,0.301312
772.835648,-0.047727,0.023918
772.869196,0.118182,0.023619
772.902744,0.295455,0.255871
772.936292,0.470455,0.082471
772.969840,0.115909,0.019117
773.003387,0.234091,0.026577
773.036934,0.295455,0.180034
773.070481,0.159091,0.113067
773.104028,0.259091,0.055064
773.137574,0.047727,0.051363
773.171120,-0.165909,0.077298
773.204666,0.248485,0.067113
773.238212,0.248485,0.067113
773.271757,0.070455,0.098563
773.305302,0.186364,0.055809
773.338847,0.472727,0.194554
773.372391,0.186364,0.085129
773.405936,0.093182,0.064313
773.439480,0.818182,0.303220
773.473024,0.415909,0.173336
773.506567,0.393182,0.154257
773.540110,0.090909,0.055670
773.573653,0.709091,0.531293
773.607196,0.279545,0.140225
773.640739,0.045455,0.093707
773.674281,0.015909,0.185708
773.707823,0.386364,0.165066
773.741365,0.322727,0.164565
773.774906,0.418182,0.092932
773.808447,-0.093182,0.055705
773.841988,0.043182,0.052359
773.875529,0.231818,0.103727
773.909070,0.050000,0.105700
773.942610,-0.179545,0.086863
773.976150,0.020455,0.050858
774.009689,0.252273,0.218475
774.043229,-0.184091,0.095907
774.076768,0.163636,0.081565
774.110307,0.434848,0.371248
774.143845,0.186364,0.085129
774.177384,1.193182,0.406677
774.210922,0.590152,0.093617
774.244460,0.652273,0.086147
774.277997,0.815909,0.163585
774.311535,0.248485,0.067113
774.345072,0.227273,0.223838
774.378609,-0.234091,0.041706
774.412145,0.115909,0.049311
774.445682,-0.002273,0.046619
774.479218,0.279545,0.170178
774.512754,0.390909,0.150550
774.546289,-0.088636,0.073320
774.579824,-0.109091,0.132677
774.613359,-0.047727,0.145716
774.646894,0.640909,0.366487
774.680429,-0.047727,0.040064
774.713963,0.281818,0.126377
774.747497,0.272727,0.140100
774.781031,0.209091,0.080930
774.814564,0.040909,0.160754
774.848097,-0.136364,0.050820
774.881630,0.277273,0.077506
774.915163,0.038636,0.126882
774.948696,0.161364,0.058421
774.982228,0.372727,0.195666
775.015760,-0.095455,0.107637
775.049291,0.075000,0.072469
775.082823,-0.018182,0.089995
775.116354,0.062121,0.049114
775.149885,0.300000,0.085884
775.183416,-0.065909,0.082282
775.216946,-0.325000,0.019911
775.250476,0.025000,0.021651
775.284006,0.086364,0.088695
775.317535,-0.043182,0.123037
775.351065,0.609091,0.415530
775.384594,-0.140909,0.122874
775.418123,0.186364,0.064403
775.451651,-0.145455,0.088374
775.485180,-0.263636,0.185920
775.518708,0.222727,0.261936
775.552235,0.186364,0.064403
775.585763,-0.088636,0.057530
775.619290,0.341667,0.019911
775.652817,0.310606,0.081153
775.686344,0.436364,0.268605
775.719870,0.229545,0.092897
775.753397,0.484091,0.366091
775.786923,0.031061,0.066910
775.820448,0.206818,0.161520
775.853974,0.350000,0.152578
775.887499,0.231818,0.081407
775.921024,0.981818,0.264731
775.954549,1.034091,0.417024
775.988073,1.245455,0.177039
776.021597,1.540909,0.352990
776.055121,0.186364,0.115954
776.088645,0.420455,0.160203
776.122168,-0.252273,0.057530
776.155691,0.186364,0.128625
776.189214,-0.252273,0.065899
776.222737,0.415909,0.120621
776.256259,0.277273,0.335279
776.289781,0.279545,0.116037
776.323303,0.093182,0.055705
776.356824,0.472727,0.174985
776.390346,0.277273,0.043301
776.423867,0.277273,0.083906
776.457387,-0.231818,0.081407
776.490908,0.093182,0.032201
776.524428,0.568182,0.288153
776.557948,-0.052273,0.141143
776.591468,0.115909,0.074369
776.624987,0.525000,0.220123
776.658506,0.075000,0.085545
776.692025,0.045455,0.149033
776.725544,0.279545,0.231849
776.759062,0.115909,0.133893
776.792581,0.095455,0.047835
776.826099,0.372727,0.096745
776.859616,0.279545,0.055982
776.893134,0.331818,0.085854
776.926651,0.318182,0.113636
776.960167,-0.217424,0.019117
776.993684,0.122727,0.104323
777.027200,0.338636,0.226940
777.060716,0.415909,0.120621
777.094232,0.070455,0.038081
777.127748,0.065909,0.109251
777.161263,0.138636,0.038753
777.194778,0.454545,0.210764
777.228293,0.124242,0.080930
777.261807,0.409091,0.134456
777.295322,0.248485,0.067113
777.328836,-0.134091,0.070078
777.362349,0.050000,0.105700
777.395863,0.209091,0.049167
777.429376,0.347727,0.167578
777.462889,0.411364,0.282319
777.496401,-0.018182,0.070711
777.529914,0.209091,0.049167
777.563426,0.256818,0.039151
777.596938,0.402273,0.118023
777.630449,0.470455,0.237462
777.663961,0.825000,0.227803
777.697472,0.631818,0.183557
777.730983,0.709091,0.298481
777.764493,1.968182,0.944391
777.798004,2.040909,0.085129
777.831514,1.818182,0.190150
777.865023,0.947727,0.164781
777.898533,0.443182,0.260312
777.932042,0.115909,0.049311
777.965551,0.670455,0.206665
777.999060,-0.072727,0.099793
778.032568,0.225000,0.105889
778.066076,0.231818,0.093237
778.099584,0.155303,0.066988
778.133092,0.211364,0.041082
778.166599,0.095455,0.047835
778.200107,0.188636,0.103322
778.233613,0.513636,0.084642
778.267120,0.404545,0.435765
778.300626,1.100000,0.408914
778.334132,0.188636,0.037119
778.367638,0.420455,0.084083
778.401144,0.248485,0.177098
778.434649,0.206818,0.035989
778.468154,0.170455,0.120663
778.501659,0.350000,0.122538
778.535163,0.322727,0.073399
778.568668,0.156818,0.142490
778.602172,0.245455,0.206656
778.635675,-0.252273,0.065899
778.669179,0.248485,0.037483
778.702682,0.736364,0.290091
778.736185,0.403788,0.081335
778.769688,-0.093182,0.055705
778.803190,-0.113636,0.049533
778.836692,0.300000,0.085884
778.870194,0.845455,0.497867
778.903696,0.120455,0.111033
778.937197,0.395455,0.080898
778.970698,0.368182,0.114158
779.004199,0.575000,0.145290
779.037699,0.372727,0.222820
779.071200,0.436364,0.299518
779.104700,-0.047727,0.040064
779.138199,0.184091,0.115457
779.171699,0.163636,0.038569
779.205198,0.470455,0.165718
779.238697,0.259091,0.063758
779.272196,0.155303,0.049206
779.305694,0.031061,0.103322
779.339192,0.227273,0.145526
779.372690,0.415909,0.046396
779.406188,0.484091,0.123373
779.439685,0.247727,0.172349
779.473182,0.465909,0.170360
779.506679,0.559091,0.056909
779.540176,2.011364,0.281293
779.573672,3.250000,0.921716
779.607168,4.904545,0.420565
779.640664,3.758333,0.422059
779.674160,1.850000,0.503433
779.707655,1.211364,0.495156
779.741150,0.528030,0.177371
779.774644,0.734091,0.396959
779.808139,0.327273,0.105431
779.841633,0.402273,0.098981
779.875127,0.186364,0.003936
779.908621,0.397727,0.181374
779.942114,-0.143182,0.147233
779.975607,0.340909,0.218879
780.009100,0.036364,0.257852
780.042593,0.413636,0.195547
780.076085,-0.168182,0.087049
780.109577,0.254545,0.223237
780.143069,0.124242,0.066959
780.176560,0.547727,0.367176
780.210052,0.156818,0.149565
780.243543,0.450000,0.151491
780.277033,0.579545,0.163395
780.310524,0.177273,0.169513
780.344014,-0.072727,0.041161
780.377504,0.504545,0.301194
780.410994,0.000000,0.096424
780.444483,0.327273,0.042640
780.477972,0.918182,0.378476
780.511461,0.155303,0.049206
780.544950,0.206818,0.073671
780.578438,0.341667,0.148629
780.611926,0.918182,0.329444
780.645414,0.186364,0.115954
780.678902,0.204545,0.087286
780.712389,0.106818,0.118895
780.745876,0.370455,0.189425
780.779363,0.302273,0.037119
780.812849,0.540909,0.243543
780.846335,0.465909,0.161007
780.879821,0.431818,0.328368
780.913307,0.302273,0.158550
780.946792,0.322727,0.047835
780.980277,0.477273,0.180034
781.013762,0.136364,0.134456
781.047247,0.281818,0.050412
781.080731,0.186364,0.032381
781.114215,0.088636,0.097509
781.147699,0.140909,0.025206
781.181183,0.000000,0.032141
781.214666,0.297727,0.285955
781.248149,0.072727,0.082822
781.281632,0.559091,0.116487
781.315114,0.661364,0.186734
781.348596,1.934091,0.302288
781.382078,3.752273,0.807924
781.415560,5.477273,0.239177
781.449041,6.572727,0.627157
781.482522,2.961364,0.832937
781.516003,0.962879,0.146353
781.549484,1.268182,0.190191
781.582964,0.836364,0.354196
781.616444,0.161364,0.036699
781.649924,0.184091,0.101149
781.683404,0.143182,0.106522
781.716883,0.477273,0.439965
781.750362,0.663636,0.261788
781.783841,0.538636,0.093341
781.817319,0.206818,0.035989
781.850797,0.277273,0.083906
781.884275,0.281818,0.059786
781.917753,0.575000,0.309014
781.951230,-0.031061,0.066910
781.984707,0.236364,0.097277
782.018184,0.170455,0.120663
782.051661,0.238636,0.192428
782.085137,0.070455,0.067449
782.118613,0.186364,0.032381
782.152089,0.397727,0.090017
782.185564,0.386364,0.232608
782.219040,0.186364,0.032381
782.252515,1.136364,0.412235
782.285989,0.284091,0.079342
782.319464,0.088636,0.092059
782.352938,0.465909,0.167300
782.386412,0.000000,0.032141
782.419885,0.062121,0.049114
782.453359,0.354545,0.314689
782.486832,0.248485,0.067113
782.520305,0.756818,0.235825
782.553777,-0.093182,0.032201
782.587249,-0.115909,0.074369
782.620721,0.204545,0.618562
782.654193,-0.031061,0.037119
782.687665,0.275000,0.083837
782.721136,0.143182,0.055519
782.754607,0.213636,0.133047
782.788077,0.315909,0.166868
782.821548,0.213636,0.072834
782.855018,-0.022727,0.037689
782.888488,0.631818,0.069048
782.921957,0.627273,0.200876
782.955427,0.204545,0.087286
782.988896,0.190909,0.095671
783.022365,0.488636,0.280834
783.055833,0.436364,0.139509
783.089301,-0.002273,0.072612
783.122769,0.688636,0.147933
783.156237,2.381818,0.659357
783.189704,1.904545,0.382217
783.223172,5.915909,0.520483
783.256638,11.297727,1.049475
783.290105,9.575000,0.145290
783.323571,5.575000,0.357525
783.357037,0.715909,0.157766
783.390503,0.518182,0.274125
783.423969,0.454545,0.136364
783.457434,0.331818,0.154596
783.490899,0.070455,0.049832
783.524364,0.140909,0.040846
783.557828,0.310606,0.067228
783.591292,0.511364,0.151929
783.624756,0.045455,0.039365
783.658220,0.213636,0.072834
783.691683,-0.004545,0.134129
783.725146,0.136364,0.093707
783.758609,0.140909,0.025206
783.792072,0.547727,0.219183
783.825534,0.550000,0.291432
783.858996,0.231818,0.081407
783.892458,0.231818,0.067535
783.925919,-0.118182,0.039886
783.959381,0.040909,0.085129
783.992842,-0.047727,0.068588
784.026302,0.297727,0.151282
784.059763,0.000000,0.064282
784.093223,0.231818,0.148738
784.126683,0.627273,0.064763
784.160142,0.465909,0.065031
784.193601,0.252273,0.164530
784.227060,0.124242,0.066959
784.260519,0.665909,0.338833
784.293978,0.872727,0.292397
784.327436,0.345455,0.056040
784.360894,0.504545,0.156851
784.394352,0.020455,0.088044
784.427809,-0.027273,0.069976
784.461266,0.310606,0.130063
784.494723,0.370455,0.178185
784.528180,0.025000,0.038753
784.561636,0.254545,0.112448
784.595092,0.143182,0.120192
784.628548,0.415909,0.282191
784.662003,0.436364,0.146727
784.695458,0.161364,0.058421
784.728913,0.029545,0.086446
784.762368,0.347727,0.034970
784.795823,0.606818,0.032679
784.829277,0.496970,0.273559
784.862731,0.143182,0.071753
784.896184,0.155303,0.151929
784.929637,0.427273,0.351414
784.963091,0.518182,0.181078
784.996543,1.556818,0.237484
785.029996,3.340909,0.161907
785.063448,10.509091,1.195878
785.096900,12.175000,0.419358
785.130352,13.111364,1.230007
785.163803,6.553788,0.579330
785.197254,1.497727,0.253190
785.230705,1.397727,0.641089
785.264156,0.161364,0.036699
785.297606,0.248485,0.182838
785.331056,0.488636,0.080953
785.364506,0.418182,0.148547
785.397955,0.113636,0.108402
785.431405,0.397727,0.181374
785.464854,0.188636,0.108205
785.498302,0.065909,0.068588
785.531751,0.093182,0.115904
785.565199,0.025000,0.038753
785.598647,-0.120455,0.055052
785.632094,-0.043182,0.052359
785.665542,0.068182,0.087286
785.698989,0.250000,0.098412
785.732436,0.688636,0.459275
785.765882,0.161364,0.148351
785.799328,0.522727,0.168166
785.832774,0.650000,0.165566
785.866220,0.438636,0.077963
785.899665,0.520455,0.198272
785.933111,0.229545,0.074369
785.966555,0.265909,0.235825
786.000000,0.640909,0.176089
786.033444,0.420455,0.115188
786.066888,0.470455,0.094167
786.100332,0.400000,0.099378
786.133776,0.390909,0.078335
786.167219,0.472727,0.127110
786.200662,0.481818,0.335164
786.234104,0.506818,0.217479
786.267547,0.136364,0.258132
786.300989,0.347727,0.112190
786.334431,0.695455,0.119118
786.367872,0.415909,0.046396
786.401314,0.454545,0.220349
786.434755,0.252273,0.137133
786.468196,0.284091,0.065031
786.501636,1.163636,0.320188
786.535076,0.093182,0.032201
786.568516,0.340909,0.117546
786.601956,0.388636,0.181971
786.635395,0.347727,0.201194
786.668834,0.093182,0.064313
786.702273,-0.217424,0.019117
786.735712,0.706818,0.370258
786.769150,0.522727,0.271541
786.802588,0.029545,0.092228
786.836026,1.404545,0.522841
786.869463,5.553788,1.029682
786.902900,15.436364,0.711215
786.936337,25.159091,1.822828
786.969774,25.059091,0.251719
787.003210,7.965152,0.600747
787.036646,3.481818,0.333619
787.070082,0.536364,0.177971
787.103518,0.627273,0.225126
787.136953,0.345455,0.229624
787.170388,0.118182,0.039886
787.203823,0.496970,0.165270
787.237257,0.070455,0.049832
787.270691,-0.031061,0.098195
787.304125,0.279545,0.032679
787.337559,0.140909,0.040846
787.370992,-0.077273,0.123378
787.404425,0.300000,0.116509
787.437858,0.615909,0.348853
787.471290,-0.025000,0.141763
787.504723,0.370455,0.186679
787.538155,0.322727,0.182428
787.571586,0.090909,0.071870
787.605018,0.095455,0.102726
787.638449,0.627273,0.064763
787.671880,0.752273,0.285051
787.705310,0.181818,0.071870
787.738741,0.065909,0.088337
787.772171,0.261364,0.076018
787.805600,0.459091,0.182993
787.839030,0.190909,0.070857
787.872459,0.613636,0.251801
787.905888,0.415909,0.144041
787.939317,0.190909,0.077806
787.972745,0.186364,0.115954
788.006173,0.722727,0.083906
788.039601,0.075000,0.085545
788.073028,0.155303,0.121729
788.106456,0.277273,0.070528
788.139883,0.068182,0.067228
788.173309,0.310606,0.074516
788.206736,0.120455,0.063748
788.240162,0.472727,0.114271
788.273588,0.509091,0.090682
788.307013,0.377273,0.066920
788.340439,0.088636,0.107583
788.373864,0.325000,0.037809
788.407288,0.165909,0.053626
788.440713,0.621212,0.177506
788.474137,0.481818,0.181078
788.507561,0.572727,0.149171
788.540985,0.250000,0.141476
788.574408,0.486364,0.136117
788.607831,0.186364,0.032381
788.641254,0.496970,0.122137
788.674677,1.550000,0.164565
788.708099,3.088636,0.384627
788.741521,12.965909,1.184151
788.774943,25.250758,0.653701
788.808364,39.633333,1.163645
788.841785,26.028788,1.737688
788.875206,10.094697,0.450371
788.908627,1.335606,0.499073
788.942047,0.845455,0.164329
788.975467,0.740909,0.260988
789.008887,0.184091,0.189888
789.042306,-0.093182,0.085060
789.075726,0.465909,0.116304
789.109145,0.155303,0.092842
789.142563,0.341667,0.121899
789.175982,0.156818,0.109722
789.209400,0.140909,0.051975
789.242817,0.211364,0.069188
789.276235,0.413636,0.251062
789.309652,0.217424,0.037397
789.343069,-0.050000,0.095427
789.376486,0.252273,0.065899
789.409902,0.356818,0.156913
789.443319,0.536364,0.135070
789.476735,0.088636,0.057530
789.510150,0.388636,0.096711
789.543565,0.206818,0.035989
789.576980,-0.124242,0.121713
789.610395,0.300000,0.056954
789.643810,0.229545,0.117453
789.677224,0.047727,0.113880
789.710638,0.027273,0.069976
789.744052,0.825000,0.271272
789.777465,0.250000,0.148599
789.810878,0.390909,0.314820
789.844291,0.597727,0.108919
789.877703,0.124242,0.018741
789.911116,0.440909,0.140597
789.944528,0.436364,0.131897
789.977939,0.727273,0.187414
790.011351,0.097727,0.088804
790.044762,0.254545,0.066183
790.078173,0.231818,0.049948
790.111583,1.118182,0.142077
790.144994,0.745455,0.097701
790.178404,0.368182,0.114158
790.211813,-0.621212,0.159091
790.245223,0.113636,0.152035
790.278632,0.155303,0.018844
790.312041,0.413636,0.257160
790.345450,0.897727,0.332617
790.378858,0.436364,0.084060
790.412266,0.413636,0.096504
790.445674,0.415909,0.102064
790.479081,0.204545,0.103528
790.512488,0.511364,0.037258
790.545895,1.934091,0.082282
790.579302,8.031818,1.373124
790.612708,20.270455,1.257705
790.646115,44.696212,1.180127
790.679520,62.513636,1.351207
790.712926,34.628788,0.709082
790.746331,9.846212,0.881516
790.779736,2.945455,0.178839
790.813141,1.286364,0.229388
790.846545,0.528030,0.075060
790.879949,0.000000,0.032141
790.913353,0.088636,0.073320
790.946757,0.090909,0.106600
790.980160,0.434091,0.128580
791.013563,0.661364,0.268439
791.046966,0.310606,0.098412
791.080368,0.134091,0.083529
791.113771,0.136364,0.122390
791.147173,0.390909,0.111062
791.180574,0.477273,0.251801
791.213976,0.000000,0.111340
791.247377,0.095455,0.107637
791.280777,0.693182,0.144970
791.314178,0.479545,0.311544
791.347578,0.229545,0.117453
791.380978,0.329545,0.058773
791.414378,0.088636,0.057530
791.447777,-0.310606,0.019682
791.481176,0.402273,0.130494
791.514575,0.528030,0.134279
791.547973,0.175000,0.202091
791.581372,0.372727,0.007873
791.614770,0.714394,0.204681
791.648167,0.279545,0.147408
791.681565,0.438636,0.192536
791.714962,0.528030,0.081652
791.748359,0.395455,0.177025
791.781755,0.161364,0.112741
791.815152,0.393182,0.101811
791.848548,0.284091,0.136718
791.881943,0.109091,0.096638
791.915339,-0.029545,0.144577
791.948734,0.534091,0.056533
791.982129,0.190909,0.128001
792.015523,0.284091,0.079342
792.048918,0.277273,0.115059
792.082312,0.584091,0.132848
792.115705,0.531818,0.156587
792.149099,0.300000,0.179358
792.182492,0.168182,0.087049
792.215885,0.186364,0.147342
792.249278,0.204545,0.130063
792.282670,0.111364,0.104663
792.316062,0.459091,0.265851
792.349454,0.813636,0.111410
792.382845,0.377273,0.117370
792.416236,3.011364,0.302527
792.449627,7.299242,0.191081
792.483018,25.602273,1.349489
792.516408,52.145455,1.784448
792.549798,66.593939,2.715436
792.583188,41.052273,1.091185
792.616578,11.370455,0.713458
792.649967,4.340909,0.779632
792.683356,0.656818,0.124912
792.716745,0.868182,0.154863
792.750133,0.554545,0.218608
792.783521,0.506818,0.095258
792.816909,0.611364,0.181971
792.850296,0.281818,0.075103
792.883684,0.070455,0.121983
792.917071,0.341667,0.130098
792.950457,0.340909,0.117546
792.983844,0.129545,0.244535
793.017230,0.520455,0.190296
793.050616,0.409091,0.380979
793.084001,0.190909,0.090110
793.117386,0.613636,0.267710
793.150771,0.779545,0.313082
793.184156,0.720455,0.195597
793.217541,0.438636,0.139671
793.250925,0.322727,0.144510
793.284309,0.234091,0.069560
793.317692,0.161364,0.066679
793.351075,0.518182,0.194819
793.384458,0.775000,0.321016
793.417841,0.155303,0.018844
793.451223,0.650000,0.104323
793.484606,0.496970,0.130321
793.517988,1.056818,0.379408
793.551369,0.652273,0.086147
793.584750,0.403788,0.049832
793.618131,0.800000,0.381710
793.651512,-0.093182,0.032201
793.684893,0.075000,0.085545
793.718273,0.143182,0.124415
793.751653,0.045455,0.149033
793.785032,0.418182,0.151984
793.818411,0.552273,0.164310
793.851790,0.225000,0.135809
793.885169,0.259091,0.055064
793.918548,0.206818,0.208927
793.951926,0.181818,0.132522
793.985304,0.279545,0.055982
794.018681,0.486364,0.153926
794.052059,0.047727,0.104416
794.085436,0.365909,0.100123
794.118812,0.779545,0.274396
794.152189,0.496970,0.165270
794.185565,0.403788,0.103671
794.218941,0.584091,0.120621
794.252317,0.465909,0.033614
794.285692,1.954545,0.245833
794.319067,6.763636,0.658354
794.352442,29.528030,1.893648
794.385816,75.011364,3.573547
794.419190,118.496212,2.559538
794.452564,90.137879,1.981666
794.485938,24.367045,0.694342
794.519311,7.609091,0.438513
794.552684,2.372727,0.753134
794.586057,0.155303,0.161807
794.619429,0.621212,0.177506
794.652802,0.845455,0.245075
794.686173,0.709091,0.284300
794.719545,0.531818,0.360405
794.752916,-0.155303,0.148490
794.786287,0.393182,0.274678
794.819658,0.140909,0.194488
794.853029,0.238636,0.163395
794.886399,0.329545,0.074299
794.919769,0.386364,0.218879
794.953138,0.163636,0.050206
794.986508,-0.031818,0.119982
795.019877,0.304545,0.027555
795.053245,-0.072727,0.152933
795.086614,0.340909,0.177142
795.119982,0.640909,0.231807
795.153350,0.465909,0.065031
795.186718,0.310606,0.049533
795.220085,0.461364,0.211824
795.253452,0.279545,0.032679
795.286819,0.420455,0.215235
795.320185,0.511364,0.066988
795.353551,0.490909,0.150619
795.386917,0.547727,0.177517
795.420283,0.893182,0.296996
795.453648,0.297727,0.125119
795.487013,0.302273,0.129899
795.520378,0.329545,0.168070
795.553742,0.652273,0.310265
795.587107,0.217424,0.081017
795.620471,0.713636,0.359256
795.653834,0.310606,0.081153
795.687197,0.868182,0.203317
795.720560,0.297727,0.179398
795.753923,0.186364,0.085129
795.787286,0.193182,0.094222
795.820648,0.525000,0.250833
795.854010,0.679545,0.542943
795.887371,0.420455,0.100842
795.920733,0.486364,0.106285
795.954094,0.395455,0.098202
795.987454,0.404545,0.171933
796.020815,0.711364,0.283834
796.054175,0.831818,0.108211
796.087535,1.159091,0.265773
796.120894,1.234091,0.228821
796.154254,1.463636,0.082947
796.187613,5.031818,0.780532
796.220971,16.509091,1.377340
796.254330,66.811364,2.959931
796.287688,174.163636,2.081709
796.321046,238.300000,3.205422
796.354403,134.212879,4.468084
796.387761,28.979545,1.252561
796.421118,7.143939,0.429269
796.454474,2.075000,0.458036
796.487831,0.775000,0.244260
796.521187,0.213636,0.144224
796.554543,0.775000,0.123874
796.587898,0.418182,0.067113
796.621254,0.829545,0.116304
796.654609,-0.031061,0.092786
796.687963,0.575000,0.255990
796.721318,0.036364,0.171165
796.754672,0.054545,0.210666
796.788026,1.111364,0.414863
796.821379,-0.015909,0.121899
796.854732,0.375000,0.076018
796.888085,0.400000,0.214553
796.921438,0.684091,0.231447
796.954790,0.138636,0.081652
796.988142,0.488636,0.037258
797.021494,0.496970,0.196666
797.054846,0.261364,0.109440
797.088197,0.343182,0.124912
797.121548,0.609091,0.128324
797.154899,0.602273,0.115188
797.188249,1.111364,0.563713
797.221599,0.890909,0.233638
797.254949,1.213636,0.201069
797.288298,0.931818,0.087286
797.321648,0.528030,0.152302
797.354996,0.259091,0.078302
797.388345,0.300000,0.133066
797.421693,0.440909,0.129106
797.455041,0.310606,0.165066
797.488389,0.434848,0.130222
797.521737,0.279545,0.085242
797.555084,0.554545,0.048319
797.588431,0.124242,0.103353
797.621777,0.772727,0.254099
797.655124,0.177273,0.215166
797.688470,0.863636,0.328564
797.721815,0.486364,0.178767
797.755161,0.047727,0.068588
797.788506,0.613636,0.145081
797.821851,0.377273,0.117370
797.855196,0.279545,0.032679
797.888540,0.496970,0.050206
797.921884,0.488636,0.018844
797.955228,0.318182,0.199431
797.988571,0.743182,0.145468
798.021914,1.045455,0.022727
798.055257,1.238636,0.369056
798.088599,5.443182,0.459736
798.121942,26.079545,1.102024
798.155284,88.550000,3.262930
798.188625,198.325000,5.572038
798.221967,264.108333,5.745979
798.255308,148.221212,3.458828
798.288649,36.309848,0.917987
798.321989,7.454545,0.888982
798.355329,2.920455,0.199674
798.388669,0.186364,0.032381
798.422009,0.722727,0.123712
798.455348,0.581818,0.130003
798.488687,0.714394,0.188934
798.522026,0.497727,0.164058
798.555365,0.465909,0.128941
798.588703,0.434091,0.187424
798.622041,1.225000,0.229205
798.655378,0.493182,0.089672
798.688716,0.686364,0.193956
798.722053,0.538636,0.093341
798.755389,0.179545,0.103172
798.788726,0.388636,0.195649
798.822062,0.248485,0.092932
798.855398,0.979545,0.168561
798.888733,0.743182,0.177458
798.922069,0.577273,0.177607
798.955404,0.527273,0.174985
798.988738,0.590152,0.050654
799.022073,1.145455,0.479066
799.055407,0.629545,0.114694
799.088741,1.070455,0.267765
799.122074,0.993939,0.189497
799.155408,1.211364,0.371553
799.188741,1.040909,0.225023
799.222073,0.786364,0.140597
799.255406,0.384091,0.139745
799.288738,0.540909,0.081407
799.322069,0.547727,0.369978
799.355401,0.622727,0.275244
799.388732,0.465909,0.116304
799.422063,0.686364,0.255952
799.455394,1.161364,0.639767
799.488724,0.756818,0.175556
799.522054,0.825000,0.366796
799.555384,0.729545,0.130177
799.588713,0.745455,0.112448
799.622042,-0.031061,0.177021
799.655371,0.868182,0.201274
799.688700,-0.248485,0.049376
799.722028,0.940909,0.187235
799.755356,0.795455,0.315533
799.788684,0.479545,0.111126
799.822011,0.338636,0.272450
799.855338,1.240909,0.222065
799.888665,1.100000,0.329130
799.921992,0.403788,0.177225
799.955318,1.925758,0.409009
799.988644,6.856818,0.259098
800.021969,35.638636,1.041248
800.055295,130.250000,7.932071
800.088620,302.592424,10.205975
800.121945,440.250000,5.479524
800.155269,318.877273,6.670238
800.188593,86.077273,2.088619
800.221917,14.084091,0.864135
800.255241,3.147727,0.969229
800.288564,1.484091,0.404946
800.321887,0.776515,0.243921
800.355210,0.327273,0.123483
800.388532,0.465909,0.056533
800.421854,0.386364,0.209227
800.455176,0.165909,0.110333
800.488498,1.018182,0.509050
800.521819,0.565909,0.136378
800.555140,-0.204545,0.087286
800.588461,0.250000,0.121861
800.621781,0.640909,0.160754
800.655101,0.320455,0.188112
800.688421,-0.095455,0.057631
800.721740,0.403788,0.214177
800.755060,0.659091,0.493108
800.788379,0.217424,0.019117
800.821697,0.552273,0.222991
800.855015,0.372727,0.128806
800.888334,0.372727,0.128806
800.921651,0.859091,0.214686
800.954969,0.990909,0.149586
800.988286,0.279545,0.085242
801.021603,1.006818,0.260391
801.054919,1.752273,0.312702
801.088235,1.636364,0.306608
801.121551,0.650000,0.051174
801.154867,1.025000,0.226028
801.188183,1.104545,0.227579
801.221498,0.968182,0.197962
801.254812,0.341667,0.049624
801.288127,0.531818,0.192136
801.321441,0.621212,0.104149
801.354755,0.984091,0.284561
801.388069,0.893182,0.202474
801.421382,-0.372727,0.116154
801.454695,0.227273,0.118094
801.488008,0.559091,0.116487
801.521320,1.163636,0.103851
801.554632,0.961364,0.126882
801.587944,0.931818,0.037689
801.621256,0.714394,0.122617
801.654567,0.936364,0.210617
801.687878,0.720455,0.210847
801.721189,0.776515,0.130929
801.754499,0.786364,0.195864
801.787809,0.622727,0.144939
801.821119,0.995455,0.155528
801.854428,1.397727,0.197724
801.887737,2.850000,0.466585
801.921046,15.784091,0.597294
801.954355,64.022727,3.454153
801.987663,213.431818,2.322495
802.020971,465.265909,9.360962
802.054279,480.880303,10.395144
802.087586,200.123485,6.436041
802.120894,36.527273,1.246168
802.154200,7.951515,1.058535
802.187507,3.265909,0.763673
802.220813,1.428788,0.133357
802.254119,1.087121,0.043643
802.287425,0.881818,0.088257
802.320730,0.652273,0.097403
802.354035,0.929545,0.486920
802.387340,1.972727,0.139138
802.420644,1.779545,0.600347
802.453949,0.895455,0.365810
802.487252,0.597727,0.141873
802.520556,0.834091,0.217479
802.553859,0.528030,0.067831
802.587162,0.528030,0.075060
802.620465,1.043182,0.197227
802.653767,0.538636,0.093341
802.687069,0.527273,0.202362
802.720371,0.652273,0.140776
802.753673,1.497727,0.515317
802.786974,0.509091,0.143596
802.820275,0.779545,0.146881
802.853576,1.213636,0.416269
802.886876,0.496970,0.219032
802.920176,1.636364,0.523221
802.953476,0.352273,0.091440
802.986775,1.159091,0.152035
803.020074,2.143182,0.154089
803.053373,1.034091,0.257819
803.086672,1.150000,0.219727
803.119970,0.797727,0.118982
803.153268,0.572727,0.216900
803.186565,1.125000,0.480878
803.219863,0.579545,0.197724
803.253160,1.377273,0.298645
803.286457,0.345455,0.192954
803.319753,0.763636,0.079772
803.353049,1.127273,0.333650
803.386345,0.621212,0.207055
803.419641,0.528030,0.038753
803.452936,0.511364,0.092842
803.486231,1.211364,0.212312
803.519525,0.902273,0.142418
803.552820,0.577273,0.109162
803.586114,1.318182,0.152459
803.619408,1.356818,0.533131
803.652701,0.815909,0.071175
803.685994,0.609091,0.078335
803.719287,1.034091,0.282667
803.752580,1.700000,0.586822
803.785872,2.647727,0.628682
803.819164,3.790909,0.383465
803.852456,19.058333,1.418275
803.885747,100.665909,2.253449
803.919038,313.556818,10.751758
803.952329,620.062879,16.031571
803.985620,611.490152,13.377202
804.018910,231.793182,4.413441
804.052200,36.238636,2.822915
804.085489,8.013636,1.003987
804.118779,4.122727,0.741714
804.152068,2.174242,0.302153
804.185357,1.180303,0.278230
804.218645,1.636364,0.266985
804.251933,0.962879,0.114694
804.285221,1.315909,0.163743
804.318508,1.647727,0.439635
804.351796,2.618182,0.460462
804.385083,1.415909,0.257298
804.418369,0.768182,0.162034
804.451656,1.215909,0.265712
804.484942,0.621212,0.177506
804.518227,0.531818,0.042336
804.551513,1.354545,0.457106
804.584798,0.668182,0.220665
804.618083,0.693182,0.196413
804.651367,1.370455,0.322589
804.684652,0.993939,0.178261
804.717936,1.329545,0.449223
804.751219,0.743182,0.050654
804.784503,0.827273,0.391094
804.817786,1.242424,0.096424
804.851068,1.640909,0.516279
804.884351,1.954545,0.113636
804.917633,2.906818,0.096444
804.950915,2.277273,0.620430
804.984196,1.527273,0.250289
805.017478,0.945455,0.227182
805.050759,0.913636,0.246075
805.084039,0.909091,0.220349
805.117320,0.845455,0.133066
805.150600,0.776515,0.082533
805.183879,1.115909,0.209174
805.217159,0.479545,0.128379
805.250438,1.252273,0.129381
805.283717,0.869697,0.177971
805.316995,1.297727,0.249284
805.350274,1.511364,0.148490
805.383552,2.079545,0.349282
805.416829,1.311364,0.199389
805.450107,1.743182,0.134394
805.483384,1.654545,0.181932
805.516660,1.495455,0.205339
805.549937,1.863636,0.122390
805.583213,2.881818,0.378585
805.616489,2.270455,0.289991
805.649764,2.563636,0.175575
805.683040,2.422727,0.186128
805.716315,4.379545,0.548555
805.749589,7.840909,0.790161
805.782864,34.325000,1.542271
805.816138,167.729545,3.388255
805.849411,571.484091,16.663767
805.882685,1113.556818,23.488515
805.915958,1255.438636,27.753611
805.949231,539.056818,13.251943
805.982504,84.205303,1.914126
806.015776,15.336364,0.474929
806.049048,2.872727,0.384030
806.082319,1.490909,0.198027
806.115591,1.452273,0.186041
806.148862,0.621212,0.152459
806.182133,0.763636,0.154679
806.215403,1.431818,0.329937
806.248673,1.450000,0.379505
806.281943,0.869697,0.131190
806.315213,1.045455,0.288377
806.348482,1.188636,0.179915
806.381751,0.761364,0.231425
806.415019,1.768182,0.337735
806.448288,1.370455,0.242093
806.481556,1.438636,0.192536
806.514823,1.087121,0.189725
806.548091,0.981818,0.105822
806.581358,1.521970,0.282649
806.614625,1.536364,0.387112
806.647891,1.968182,0.475141
806.681158,1.025000,0.171448
806.714424,1.220455,0.215331
806.747689,1.179545,0.125736
806.780955,1.190909,0.143236
806.814220,1.625000,0.262288
806.847484,2.663636,0.848151
806.880749,2.361364,0.509723
806.914013,1.987879,0.410402
806.947277,1.363636,0.220349
806.980540,1.684091,0.147127
807.013803,2.365909,0.083219
807.047066,1.968182,0.521179
807.080329,1.863636,0.068182
807.113591,2.050000,0.341386
807.146853,1.770455,0.204176
807.180115,1.797727,0.441405
807.213376,1.604545,0.144939
807.246637,2.329545,0.201604
807.279898,2.284091,0.206039
807.313159,2.865909,0.302629
807.346419,1.947727,0.251614
807.379679,2.334091,0.303958
807.412938,2.818182,0.203279
807.446198,4.102273,0.420416
807.479457,2.688636,0.273642
807.512715,3.230303,0.119572
807.545974,4.377273,0.340659
807.579232,4.590909,0.260126
807.612490,5.288636,0.298557
807.645747,5.559848,0.178040
807.679004,9.522727,1.028707
807.712261,25.627273,1.620459
807.745518,122.104545,4.438763
807.778774,570.024242,14.365541
807.812030,1472.379545,16.564702
807.845285,1875.408333,41.406511
807.878541,1306.098485,29.296916
807.911796,288.770455,6.452405
807.945051,31.961364,2.634244
807.978305,4.406818,0.672707
808.011559,1.940909,0.369184
808.044813,1.036364,0.284518
808.078066,1.925758,0.346075
808.111320,0.869697,0.153000
808.144573,1.801515,0.290580
808.177825,1.521970,0.074230
808.211078,1.218182,0.341908
808.244330,1.097727,0.552356
808.277581,1.663636,0.223468
808.310833,1.770455,0.225799
808.344084,1.025000,0.243625
808.377335,1.586364,0.236222
808.410585,2.640152,0.310531
808.443835,0.931818,0.171210
808.477085,1.411364,0.343556
808.510335,0.765909,0.207513
808.543584,1.647727,0.500613
808.576833,2.061364,0.464920
808.610082,1.615152,0.235005
808.643330,1.361364,0.476193
808.676578,1.856818,0.367850
808.709826,0.931818,0.087286
808.743073,1.702273,0.416912
808.776320,1.872727,0.378612
808.809567,1.832576,0.235715
808.842814,3.323485,0.190432
808.876060,1.836364,0.228271
808.909306,1.306818,0.117409
808.942552,1.868182,0.263117
808.975797,1.506818,0.186817
809.009042,1.545455,0.178955
809.042287,1.490909,0.181705
809.075531,1.536364,0.194607
809.108775,1.579545,0.210381
809.142019,1.790909,0.144957
809.175262,2.029545,0.406474
809.208506,1.956818,0.199829
809.241748,2.836364,0.687431
809.274991,2.193182,0.165749
809.308233,2.112121,0.107853
809.341475,3.088636,0.265440
809.374717,2.546970,0.193209
809.407958,3.988636,0.699833
809.441199,3.168182,0.087049
809.474440,3.356818,0.465586
809.507680,3.789394,0.309183
809.540921,5.504545,0.261146
809.574160,5.621970,0.372039
809.607400,7.454545,0.492716
809.640639,10.964394,0.414427
809.673878,31.197727,0.771110
809.707117,149.036364,2.491133
809.740355,638.686364,11.989476
809.773593,1586.245455,22.560331
809.806831,1820.027273,38.712777
809.840068,973.843182,22.562831
809.873305,171.047727,7.725211
809.906542,22.604545,1.759019
809.939778,9.436364,1.024715
809.973015,8.550000,1.207165
810.006250,8.061364,1.336446
810.039486,5.106818,0.401037
810.072721,4.661364,0.290614
810.105956,4.162121,0.386785
810.139191,2.609091,0.330820
810.172425,1.493182,0.247057
810.205659,1.613636,0.253844
810.238893,1.906818,0.170087
810.272126,2.459091,0.273512
810.305359,1.793182,0.437586
810.338592,1.661364,0.169631
810.371825,1.786364,0.441325
810.405057,3.290909,0.533234
810.438289,1.118182,0.171708
810.471520,0.838636,0.225685
810.504751,2.202273,0.328885
810.537982,1.470455,0.278135
810.571213,1.220455,0.404244
810.604443,1.563636,0.297788
810.637673,1.579545,0.436983
810.670903,0.854545,0.099378
810.704133,1.172727,0.199327
810.737362,2.159091,0.265773
810.770591,1.177273,0.264682
810.803819,1.665909,0.333145
810.837047,2.568182,0.546755
810.870275,0.859091,0.040846
810.903503,1.318182,0.099066
810.936730,1.043182,0.319241
810.969957,1.152273,0.275617
811.003184,1.293182,0.283324
811.036410,1.504545,0.454335
811.069636,2.205303,0.346818
811.102862,1.863636,0.408459
811.136087,1.606818,0.163995
811.169312,2.806818,0.849826
811.202537,2.112121,0.332875
811.235762,2.360606,0.500764
811.268986,1.631818,0.069048
811.302210,1.802273,0.397544
811.335433,1.722727,0.341386
811.368656,2.795455,0.188445
811.401879,3.318182,0.372755
811.435102,3.836364,0.566306
811.468324,1.956818,0.670091
811.501546,2.671212,0.847587
811.534768,3.254545,0.752709
811.567990,4.100000,0.463837
811.601211,8.231061,0.888165
811.634432,22.979545,0.648109
811.667652,118.927273,1.147239
811.700872,470.347727,14.632505
811.734092,1192.851515,27.899990
811.767312,1508.458333,33.826083
811.800531,851.184848,18.156071
811.833750,134.368182,3.239512
811.866969,14.318939,1.466176
811.900187,4.361364,0.915604
811.933405,3.156818,0.903765
811.966623,1.202273,0.142671
811.999840,2.743182,0.386743
812.033057,2.061364,0.956618
812.066274,2.350000,0.501171
812.099490,0.786364,0.578662
812.132707,2.161364,0.486707
812.165923,0.869697,0.214794
812.199138,0.736364,0.122221
812.232353,1.004545,0.240984
812.265568,0.590152,0.194139
812.298783,0.975000,0.336415
812.331997,1.022727,0.098412
812.365211,1.180303,0.246745
812.398425,0.248485,0.177098
812.431638,0.206818,0.057977
812.464851,0.752273,0.394505
812.498064,0.020455,0.050858
812.531277,0.565909,0.324616
812.564489,0.902273,0.495469
812.597701,0.672727,0.310225
812.630912,0.320455,0.234551
812.664123,0.847727,0.297777
