#{
#    "background_file": "Backgrounds\\\\bg_785.995nm_13bin_219st_244en_10.0s_110g_4x_13_seq.txt",
#    "ccd_image_settings": [
#        1,
#        13,
#        1,
#        1600,
#        219,
#        244
#    ],
#    "ccd_temperature": "-87",
#    "cdRatios": {
#        "mean": 0.9471290268507282,
#        "std": 0.009596720895100911
#    },
#    "center_lambda": 786.0,
#    "comments": "",
#    "dark_region": 63.35209501693209,
#    "date": "10/22/20 17:55:36PM",
#    "eff_field": 1.5,
#    "exposure": 10.0,
#    "fel_lambda": "15.0",
#    "fel_pol": "H",
#    "fel_pulses": 43,
#    "fel_pyro_cal": "0.012",
#    "fel_reprate": "1.07",
#    "fel_transmission": "1.0",
#    "fel_transmission_fits": {
#        "A": 1.0,
#        "C": 0.0,
#        "Mu": 0.0
#    },
#    "fieldInt": {
#        "mean": 5147.413087121212,
#        "std": 209.4993988563669
#    },
#    "fieldStrength": {
#        "mean": 32.91101515151515,
#        "std": 0.6831925449728237
#    },
#    "fpTime": {
#        "mean": 1.0879884495058771,
#        "std": 0.06343204190654933
#    },
#    "gain": 110,
#    "grating": 3,
#    "images_in_sequence": [
#        "hsg_820nm_c123_a00_HAna533.txt",
#        "hsg_820nm_c123_a00_HAna534.txt",
#        "hsg_820nm_c123_a00_HAna535.txt",
#        "hsg_820nm_c123_a00_HAna536.txt"
#    ],
#    "nir_lambda": "819.98",
#    "nir_pola": "00",
#    "nir_polg": "0",
#    "nir_power": "100.0",
#    "pulseEnergies": {
#        "mean": 1.5701420454545456,
#        "std": 0.07414446292845381
#    },
#    "pyroVoltage": {
#        "mean": 0.13821623310648082,
#        "std": 0.0075714780931282625
#    },
#    "rotatorAngle": 22.499996337881683,
#    "sample_Temp": "55",
#    "sample_name": "L001218.C1",
#    "series": "820_Fan",
#    "slits": "60",
#    "spec_step": "",
#    "window_trans": 0.92,
#    "y_max": 2,
#    "y_min": 1
#}
#
#
#
#
#
#
#
#
#
#
#
#
#
#
#
#
#
#
#
#
#
#
#
#
#
#
Wavelength,Signal,error
nm,arb. u.,arb.u.
Wavelength,820_Fan,error
759.194366,0.879545,0.689303
759.228015,0.272727,0.215610
759.261663,0.543182,0.177807
759.295311,0.788636,0.565570
759.328959,0.518182,0.095021
759.362607,0.334091,0.206140
759.396254,-0.136364,0.050820
759.429901,0.031061,0.103322
759.463548,0.665909,0.161135
759.497194,0.020455,0.216813
759.530841,0.025000,0.038753
759.564487,0.227273,0.068182
759.598133,0.217424,0.165000
759.631779,-0.072727,0.104841
759.665424,0.206818,0.097774
759.699069,-0.009091,0.135070
759.732714,-0.047727,0.094003
759.766359,0.138636,0.152302
759.800003,0.145455,0.088374
759.833648,0.156818,0.162794
759.867292,0.895455,0.272983
759.900935,0.031061,0.018568
759.934579,0.311364,0.116703
759.968222,1.054545,0.676922
760.001865,0.254545,0.116952
760.035508,0.759091,0.358104
760.069151,0.104545,0.144224
760.102793,0.206818,0.133507
760.136435,0.065909,0.104416
760.170077,0.793182,0.125531
760.203718,0.297727,0.170542
760.237360,-0.065909,0.354216
760.271001,0.000000,0.000000
760.304642,0.229545,0.074369
760.338283,0.027273,0.095021
760.371923,0.104545,0.144224
760.405563,0.311364,0.125243
760.439203,0.440909,0.306835
760.472843,0.329545,0.049206
760.506482,0.217424,0.103422
760.540122,0.211364,0.142418
760.573761,0.388636,0.173246
760.607399,0.227273,0.118094
760.641038,0.475000,0.220123
760.674676,1.072727,0.355651
760.708314,0.427273,0.171708
760.741952,0.181818,0.096424
760.775589,0.406818,0.402797
760.809227,0.863636,0.424580
760.842864,0.256818,0.022355
760.876501,-0.259091,0.128303
760.910137,0.115909,0.074369
760.943774,0.186364,0.085129
760.977410,0.365909,0.290525
761.011046,0.031061,0.037119
761.044681,0.136364,0.050820
761.078317,0.329545,0.080953
761.111952,0.027273,0.083443
761.145587,0.802273,0.266954
761.179221,0.384091,0.311461
761.212856,-0.440909,0.161139
761.246490,0.434091,0.218001
761.280124,0.413636,0.128625
761.313758,0.481818,0.131504
761.347391,0.275000,0.184087
761.381024,0.062121,0.074239
761.414657,-0.122727,0.104323
761.448290,0.248485,0.037483
761.481923,0.843182,0.570951
761.515555,0.322727,0.065987
761.549187,-0.120455,0.111033
761.582819,-0.070455,0.158778
761.616450,0.209091,0.214023
761.650082,0.197727,0.289242
761.683713,0.290909,0.179646
761.717344,0.411364,0.329591
761.750974,0.029545,0.080249
761.784605,-0.184091,0.124082
761.818235,0.556818,0.165749
761.851865,0.856818,0.246847
761.885494,-0.136364,0.171587
761.919124,0.618182,0.245707
761.952753,-0.115909,0.037397
761.986382,0.597727,0.326963
762.020010,0.322727,0.121181
762.053639,0.179545,0.216336
762.087267,0.443182,0.068888
762.120895,0.738636,0.162603
762.154523,0.477273,0.345238
762.188150,0.040909,0.150807
762.221777,0.525000,0.309965
762.255404,0.397727,0.252761
762.289031,0.004545,0.108593
762.322658,0.318182,0.223838
762.356284,0.020455,0.081968
762.389910,0.147727,0.292545
762.423536,0.475000,0.173097
762.457161,0.004545,0.126193
762.490786,0.070455,0.067449
762.524411,-0.018182,0.084060
762.558036,-0.093182,0.115904
762.591661,0.093182,0.032201
762.625285,-0.493182,0.095258
762.658909,0.495455,0.309650
762.692533,0.184091,0.054770
762.726157,0.525000,0.215379
762.759780,0.213636,0.140597
762.793403,0.479545,0.120063
762.827026,-0.031818,0.119982
762.860649,0.229545,0.117453
762.894271,0.029545,0.086446
762.927893,0.068182,0.098412
762.961515,0.506818,0.202729
762.995137,0.238636,0.090017
763.028758,0.240909,0.110104
763.062379,0.502273,0.213331
763.096000,0.552273,0.193205
763.129621,0.031061,0.066910
763.163241,0.084091,0.193472
763.196862,0.788636,0.311013
763.230481,0.204545,0.067228
763.264101,0.254545,0.035791
763.297721,0.043182,0.309381
763.331340,0.168182,0.182767
763.364959,0.138636,0.098824
763.398578,-0.272727,0.124482
763.432196,0.143182,0.147233
763.465814,0.065909,0.159265
763.499432,0.822727,0.256355
763.533050,0.647727,0.374957
763.566668,0.954545,0.547817
763.600285,-0.031061,0.049101
763.633902,0.634091,0.139004
763.667519,0.481818,0.131504
763.701135,0.722727,0.482134
763.734752,0.443182,0.051764
763.768368,0.415909,0.120621
763.801984,0.045455,0.081944
763.835599,0.288636,0.175997
763.869215,0.211364,0.088804
763.902830,0.272727,0.236189
763.936444,0.093182,0.032201
763.970059,-0.072727,0.099793
764.003673,0.875000,0.438753
764.037288,0.115909,0.019117
764.070901,-0.186364,0.170121
764.104515,0.095455,0.154863
764.138128,0.575000,0.180202
764.171742,0.429545,0.146776
764.205354,0.065909,0.212117
764.238967,0.586364,0.101716
764.272580,0.536364,0.219551
764.306192,0.234091,0.069560
764.339804,0.325000,0.037809
764.373415,-0.002273,0.132925
764.407027,0.368182,0.295656
764.440638,0.381818,0.138020
764.474249,0.329545,0.148490
764.507860,0.536364,0.372977
764.541470,0.543182,0.258340
764.575080,0.379545,0.221013
764.608690,-0.040909,0.078828
764.642300,0.186364,0.278379
764.675909,0.638636,0.221527
764.709519,0.779545,0.319613
764.743128,0.343182,0.164215
764.776736,0.065909,0.082282
764.810345,0.295455,0.087286
764.843953,-0.004545,0.134129
764.877561,0.040909,0.124545
764.911169,0.165909,0.110333
764.944776,0.075000,0.160975
764.978384,-0.045455,0.050820
765.011991,0.047727,0.040064
765.045598,0.463636,0.244062
765.079204,0.920455,0.425302
765.112810,0.310606,0.133975
765.146416,-0.090909,0.071870
765.180022,0.322727,0.144510
765.213628,0.218182,0.273030
765.247233,0.163636,0.162114
765.280838,0.306818,0.058773
765.314443,-0.045455,0.050820
765.348048,0.403788,0.273491
765.381652,0.093182,0.147303
765.415256,0.211364,0.069188
765.448860,0.288636,0.154089
765.482463,0.338636,0.377374
765.516067,0.881818,0.243808
765.549670,0.062121,0.037137
765.583273,0.175000,0.154925
765.616875,0.427273,0.290234
765.650478,0.404545,0.202298
765.684080,0.422727,0.060431
765.717682,0.177273,0.272377
765.751283,0.154545,0.225310
765.784885,0.434848,0.081407
765.818486,0.588636,0.282502
765.852087,0.290909,0.239317
765.885687,0.000000,0.032141
765.919288,0.227273,0.199431
765.952888,0.502273,0.181971
765.986488,0.554545,0.295035
766.020087,0.111364,0.152810
766.053687,0.268182,0.280228
766.087286,0.111364,0.104663
766.120885,0.393182,0.167115
766.154484,0.334091,0.213525
766.188082,0.062121,0.080898
766.221680,-0.140909,0.051975
766.255278,0.240909,0.272983
766.288876,0.320455,0.121346
766.322473,0.124242,0.018741
766.356070,0.931818,0.505522
766.389667,0.062121,0.074239
766.423264,0.236364,0.097277
766.456860,0.302273,0.133816
766.490457,0.043182,0.041333
766.524053,0.136364,0.075378
766.557648,0.322727,0.133357
766.591244,0.327273,0.105431
766.624839,0.202273,0.205059
766.658434,0.070455,0.038081
766.692029,0.547727,0.197096
766.725623,0.431818,0.193849
766.759217,0.093182,0.055705
766.792811,-0.118182,0.171708
766.826405,0.018182,0.131897
766.859999,0.554545,0.121373
766.893592,0.363636,0.244780
766.927185,1.263636,0.449816
766.960777,0.013636,0.265306
766.994370,0.209091,0.049167
767.027962,0.506818,0.205261
767.061554,0.000000,0.032141
767.095146,0.809091,0.128001
767.128737,0.217424,0.273396
767.162329,0.120455,0.063748
767.195920,-0.043182,0.069337
767.229510,0.513636,0.215454
767.263101,0.031061,0.049101
767.296691,0.286364,0.213043
767.330281,-0.300000,0.079643
767.363871,-0.045455,0.113636
767.397460,0.393182,0.238439
767.431050,0.334091,0.147758
767.464639,0.461364,0.237135
767.498227,0.229545,0.074369
767.531816,0.870455,0.244535
767.565404,-0.436364,0.084060
767.598992,0.238636,0.123832
767.632580,0.090909,0.032141
767.666168,-0.065909,0.060591
767.699755,0.068182,0.067228
767.733342,0.072727,0.041161
767.766929,0.248485,0.019285
767.800515,0.320455,0.170844
767.834101,0.043182,0.118765
767.867687,-0.052273,0.086744
767.901273,0.190909,0.100925
767.934859,-0.184091,0.115457
767.968444,0.018182,0.131897
768.002029,0.140909,0.069048
768.035614,0.022727,0.067228
768.069198,0.338636,0.181117
768.102783,-0.422727,0.109162
768.136367,0.368182,0.165816
768.169950,-0.140909,0.051975
768.203534,0.068182,0.087286
768.237117,0.163636,0.067726
768.270700,0.481818,0.156604
768.304283,0.329545,0.098248
768.337866,0.090909,0.106600
768.371448,-0.124242,0.037206
768.405030,-0.202273,0.100123
768.438612,0.002273,0.102165
768.472193,0.552273,0.133042
768.505775,0.155303,0.049206
768.539356,0.463636,0.194607
768.572936,0.281818,0.152324
768.606517,-0.256818,0.068059
768.640097,0.286364,0.215454
768.673677,-0.075000,0.064952
768.707257,0.090909,0.115887
768.740836,0.252273,0.112282
768.774416,0.231818,0.098622
768.807995,0.155303,0.049206
768.841574,0.372727,0.111618
768.875152,0.640909,0.203317
768.908730,0.338636,0.143213
768.942308,0.681818,0.337865
768.975886,0.009091,0.123064
769.009464,0.938636,0.264133
769.043041,0.022727,0.081153
769.076618,0.575000,0.232738
769.110195,0.686364,0.271617
769.143771,0.240909,0.105308
769.177348,0.270455,0.148699
769.210924,0.184091,0.101149
769.244499,0.343182,0.140482
769.278075,0.143182,0.078623
769.311650,0.506818,0.302851
769.345225,0.254545,0.097701
769.378800,0.356818,0.178474
769.412375,0.438636,0.212919
769.445949,0.000000,0.032141
769.479523,0.138636,0.067831
769.513097,0.065909,0.122617
769.546670,0.270455,0.141581
769.580243,0.090909,0.220349
769.613816,0.188636,0.087041
769.647389,-0.065909,0.082282
769.680962,0.254545,0.140982
769.714534,0.040909,0.124545
769.748106,0.586364,0.323039
769.781678,0.400000,0.191665
769.815249,0.043182,0.123037
769.848820,-0.400000,0.099378
769.882391,0.088636,0.073320
769.915962,0.859091,0.402234
769.949533,0.254545,0.112448
769.983103,0.209091,0.049167
770.016673,0.310606,0.098412
770.050243,0.070455,0.038081
770.083812,-0.168182,0.161779
770.117381,0.054545,0.106406
770.150950,0.325000,0.121899
770.184519,0.300000,0.072869
770.218088,0.154545,0.218324
770.251656,0.325000,0.177167
770.285224,0.425000,0.266469
770.318791,0.527273,0.214746
770.352359,0.547727,0.342427
770.385926,0.320455,0.196177
770.419493,0.406818,0.220475
770.453060,0.240909,0.370859
770.486626,0.547727,0.369978
770.520192,0.088636,0.161360
770.553758,0.925000,0.446617
770.587324,0.838636,0.336031
770.620890,0.204545,0.087286
770.654455,0.706818,0.186596
770.688020,0.370455,0.114694
770.721584,0.495455,0.150120
770.755149,0.134091,0.146423
770.788713,0.138636,0.050347
770.822277,0.434091,0.280208
770.855841,-0.388636,0.096711
770.889404,0.102273,0.116304
770.922967,0.279545,0.195597
770.956530,0.406818,0.163743
770.990093,0.411364,0.334259
771.023655,0.613636,0.379450
771.057217,0.684091,0.335339
771.090779,0.225000,0.226940
771.124341,-0.536364,0.026112
771.157902,0.502273,0.143933
771.191463,0.402273,0.230620
771.225024,0.190909,0.077806
771.258585,0.279545,0.055982
771.292145,0.070455,0.038081
771.325705,0.231818,0.122031
771.359265,0.822727,0.423502
771.392825,0.252273,0.065899
771.426384,-0.163636,0.021320
771.459943,0.202273,0.256534
771.493502,0.155303,0.080953
771.527061,0.403788,0.081335
771.560619,-0.254545,0.035791
771.594177,0.093182,0.085060
771.627735,0.052273,0.086744
771.661293,0.279545,0.116037
771.694850,0.225000,0.139560
771.728407,0.202273,0.214899
771.761964,0.588636,0.236525
771.795521,0.340909,0.322014
771.829077,0.347727,0.086147
771.862633,0.481818,0.139138
771.896189,0.150000,0.205138
771.929744,-0.090909,0.085038
771.963300,-0.062121,0.037137
771.996855,0.111364,0.239670
772.030409,0.027273,0.114722
772.063964,0.234091,0.026577
772.097518,0.025000,0.067831
772.131072,0.155303,0.112924
772.164626,0.327273,0.131583
772.198180,-0.124242,0.066959
772.231733,0.218182,0.114812
772.265286,-0.136364,0.050820
772.298839,0.124242,0.269565
772.332391,0.528030,0.177371
772.365943,0.970455,0.373770
772.399495,0.693182,0.413291
772.433047,0.354545,0.110689
772.466598,-0.027273,0.095021
772.500150,0.045455,0.022727
772.533701,-0.118182,0.060473
772.567251,-0.186364,0.064403
772.600802,0.090909,0.106600
772.634352,0.229545,0.074369
772.667902,0.693182,0.214032
772.701452,0.175000,0.164624
772.735001,0.329545,0.125901
772.768550,0.254545,0.161476
772.802099,-0.215909,0.084083
772.835648,0.025000,0.087751
772.869196,0.325000,0.177167
772.902744,-0.088636,0.097509
772.936292,0.254545,0.086483
772.969840,0.261364,0.076018
773.003387,0.254545,0.035791
773.036934,0.111364,0.159427
773.070481,0.025000,0.148872
773.104028,0.070455,0.067449
773.137574,0.202273,0.131362
773.171120,0.000000,0.000000
773.204666,0.086364,0.118596
773.238212,-0.070455,0.103671
773.271757,0.247727,0.153316
773.305302,0.341667,0.049624
773.338847,0.227273,0.196824
773.372391,0.475000,0.146952
773.405936,0.538636,0.081526
773.439480,0.111364,0.130968
773.473024,0.025000,0.067831
773.506567,0.300000,0.102348
773.540110,0.990909,0.561009
773.573653,0.254545,0.086483
773.607196,0.745455,0.148129
773.640739,0.068182,0.059047
773.674281,-0.095455,0.080128
773.707823,0.090909,0.096424
773.741365,0.204545,0.087286
773.774906,0.375000,0.088571
773.808447,0.434091,0.203288
773.841988,0.593182,0.229655
773.875529,0.072727,0.082822
773.909070,0.340909,0.308915
773.942610,0.086364,0.189101
773.976150,0.004545,0.098622
774.009689,-0.045455,0.050820
774.043229,-0.209091,0.092821
774.076768,0.797727,0.351508
774.110307,0.500000,0.382332
774.143845,0.547727,0.367176
774.177384,1.384091,0.264856
774.210922,0.611364,0.362290
774.244460,0.370455,0.069930
774.277997,0.425000,0.152235
774.311535,0.113636,0.059047
774.345072,0.528030,0.183103
774.378609,-0.248485,0.067113
774.412145,0.062121,0.066920
774.445682,-0.136364,0.050820
774.479218,0.093182,0.032201
774.512754,0.113636,0.037689
774.546289,-0.184091,0.044347
774.579824,-0.093182,0.096444
774.613359,-0.093182,0.055705
774.646894,0.263636,0.141786
774.680429,-0.027273,0.062158
774.713963,0.845455,0.296571
774.747497,0.170455,0.136718
774.781031,0.181818,0.064282
774.814564,0.331818,0.314155
774.848097,0.165909,0.083714
774.881630,0.372727,0.064763
774.915163,0.093182,0.064313
774.948696,-0.020455,0.039414
774.982228,0.188636,0.049101
775.015760,-0.075000,0.064952
775.049291,0.181818,0.096424
775.082823,-0.045455,0.022727
775.116354,0.336364,0.191611
775.149885,0.427273,0.429708
775.183416,-0.163636,0.021320
775.216946,-0.029545,0.220896
775.250476,0.625000,0.275729
775.284006,0.150000,0.144939
775.317535,-0.165909,0.181203
775.351065,0.184091,0.054770
775.384594,0.129545,0.256896
775.418123,0.155303,0.049206
775.451651,0.350000,0.099248
775.485180,-0.281818,0.138095
775.518708,0.217424,0.133893
775.552235,0.236364,0.097277
775.585763,0.134091,0.360432
775.619290,0.236364,0.073011
775.652817,0.284091,0.147618
775.686344,-0.043182,0.052359
775.719870,0.136364,0.093707
775.753397,0.040909,0.124545
775.786923,0.215909,0.153619
775.820448,0.111364,0.209791
775.853974,0.963636,0.466834
775.887499,0.804545,0.314155
775.921024,0.459091,0.214204
775.954549,0.379545,0.144756
775.988073,0.936364,0.363267
776.021597,0.681818,0.093707
776.055121,0.897727,0.404129
776.088645,0.593182,0.250936
776.122168,0.047727,0.068588
776.155691,0.465909,0.056533
776.189214,0.059091,0.247581
776.222737,0.236364,0.047238
776.256259,-0.065909,0.060591
776.289781,0.297727,0.151282
776.323303,0.090909,0.136364
776.356824,0.136364,0.075378
776.390346,0.509091,0.244696
776.423867,0.436364,0.268605
776.457387,-0.145455,0.109280
776.490908,0.318182,0.159091
776.524428,0.615909,0.299455
776.557948,-0.213636,0.091673
776.591468,0.195455,0.210605
776.624987,0.656818,0.451357
776.658506,1.175000,0.537377
776.692025,-0.159091,0.130063
776.725544,-0.072727,0.076331
776.759062,0.322727,0.203824
776.792581,0.138636,0.122195
776.826099,0.372727,0.111618
776.859616,0.538636,0.201835
776.893134,0.565909,0.111358
776.926651,0.211364,0.088804
776.960167,0.322727,0.116841
776.993684,0.310606,0.161907
777.027200,0.113636,0.037689
777.060716,0.402273,0.292439
777.094232,0.179545,0.141216
777.127748,-0.062121,0.049114
777.161263,0.352273,0.091440
777.194778,-0.031061,0.103322
777.228293,0.372727,0.007873
777.261807,0.413636,0.143794
777.295322,0.279545,0.140225
777.328836,0.045455,0.022727
777.362349,0.204545,0.141476
777.395863,0.897727,0.237484
777.429376,0.420455,0.299524
777.462889,0.386364,0.234818
777.496401,0.288636,0.343601
777.529914,0.331818,0.193209
777.563426,0.195455,0.122538
777.596938,0.811364,0.148455
777.630449,0.665909,0.310681
777.663961,0.120455,0.071392
777.697472,0.902273,0.118678
777.730983,0.752273,0.350256
777.764493,1.575000,0.525618
777.798004,2.086364,0.535723
777.831514,0.613636,0.225848
777.865023,0.200000,0.176747
777.898533,0.665909,0.303958
777.932042,0.484091,0.423647
777.965551,0.118182,0.068484
777.999060,-0.184091,0.030555
778.032568,0.461364,0.108682
778.066076,0.256818,0.177458
778.099584,-0.031061,0.066910
778.133092,0.338636,0.252782
778.166599,0.581818,0.209190
778.200107,0.059091,0.175854
778.233613,0.713636,0.352581
778.267120,0.022727,0.145081
778.300626,0.500000,0.145526
778.334132,-0.234091,0.083095
778.367638,0.061364,0.155922
778.401144,-0.061364,0.109156
778.434649,0.217424,0.098300
778.468154,0.155303,0.049206
778.501659,-0.025000,0.038753
778.535163,0.320455,0.129580
778.568668,0.781818,0.309558
778.602172,0.068182,0.037689
778.635675,-0.197727,0.166960
778.669179,0.220455,0.139671
778.702682,0.418182,0.067113
778.736185,0.310606,0.049533
778.769688,0.438636,0.077963
778.803190,0.320455,0.188112
778.836692,0.140909,0.040846
778.870194,-0.040909,0.085129
778.903696,0.072727,0.061322
778.937197,0.302273,0.037119
778.970698,0.229545,0.092897
779.004199,0.200000,0.140982
779.037699,-0.097727,0.088804
779.071200,0.893182,0.241346
779.104700,0.245455,0.151916
779.138199,0.306818,0.098248
779.171699,0.322727,0.151491
779.205198,0.070455,0.145184
779.238697,0.177273,0.163305
779.272196,0.438636,0.169722
779.305694,0.418182,0.214071
779.339192,1.143182,0.331980
779.372690,0.415909,0.072469
779.406188,0.550000,0.193422
779.439685,0.638636,0.420797
779.473182,0.336364,0.158571
779.506679,1.254545,0.401752
779.540176,0.870455,0.347041
779.573672,2.122727,0.254170
779.607168,3.345455,0.977452
779.640664,2.497727,0.293092
779.674160,0.115909,0.067065
779.707655,0.310606,0.067228
779.741150,0.136364,0.050820
779.774644,1.000000,0.362213
779.808139,0.659091,0.395448
779.841633,0.393182,0.032679
779.875127,0.543182,0.256534
779.908621,0.177273,0.217554
779.942114,-0.006818,0.163680
779.975607,0.488636,0.185596
780.009100,0.109091,0.294649
780.042593,0.068182,0.067228
780.076085,-0.006818,0.217835
780.109577,0.147727,0.108253
780.143069,0.509091,0.143596
780.176560,0.404545,0.339870
780.210052,0.238636,0.084083
780.243543,0.506818,0.062521
780.277033,0.415909,0.225181
780.310524,0.061364,0.235167
780.344014,0.525000,0.222690
780.377504,0.124242,0.066959
780.410994,0.268182,0.181292
780.444483,0.124242,0.066959
780.477972,0.209091,0.049167
780.511461,0.456818,0.283324
780.544950,0.113636,0.234818
780.578438,0.115909,0.049311
780.611926,0.436364,0.200310
780.645414,0.062121,0.049114
780.678902,0.252273,0.253496
780.712389,0.575000,0.228256
780.745876,0.484091,0.217361
780.779363,0.200000,0.140982
780.812849,-0.002273,0.056625
780.846335,0.188636,0.179915
780.879821,0.040909,0.120326
780.913307,0.413636,0.195547
780.946792,0.403788,0.103671
780.980277,0.550000,0.278750
781.013762,0.113636,0.108402
781.047247,0.843182,0.408527
781.080731,0.827273,0.243638
781.114215,0.065909,0.060591
781.147699,0.238636,0.100842
781.181183,0.159091,0.093015
781.214666,0.006818,0.119977
781.248149,0.259091,0.044710
781.281632,0.352273,0.056533
781.315114,0.706818,0.150082
781.348596,1.495455,0.264682
781.382078,1.366667,0.034317
781.415560,2.120455,0.312669
781.449041,4.245455,0.610125
781.482522,3.093182,0.316560
781.516003,0.993939,0.344316
781.549484,0.850000,0.270321
781.582964,0.297727,0.151282
781.616444,0.397727,0.143177
781.649924,0.229545,0.199052
781.683404,-0.020455,0.126555
781.716883,0.268182,0.236222
781.750362,0.325000,0.113107
781.783841,0.147727,0.112924
781.817319,0.434091,0.324616
781.850797,0.547727,0.239670
781.884275,0.229545,0.121771
781.917753,0.345455,0.164015
781.951230,0.220455,0.384600
781.984707,0.779545,0.270605
782.018184,0.062121,0.049114
782.051661,0.365909,0.159751
782.085137,0.572727,0.145667
782.118613,0.413636,0.090994
782.152089,0.372727,0.085401
782.185564,0.540909,0.265851
782.219040,0.593182,0.215739
782.252515,0.231818,0.098622
782.285989,0.554545,0.241081
782.319464,0.372727,0.167196
782.352938,0.515909,0.175262
782.386412,0.031061,0.112878
782.419885,0.200000,0.337467
782.453359,-0.052273,0.125654
782.486832,0.400000,0.088374
782.520305,0.238636,0.110613
782.553777,0.484091,0.110098
782.587249,-0.143182,0.124415
782.620721,-0.683333,0.039821
782.654193,0.322727,0.073399
782.687665,0.217424,0.074369
782.721136,0.372727,0.085401
782.754607,0.279545,0.128700
782.788077,0.159091,0.067228
782.821548,0.318182,0.277422
782.855018,0.043182,0.104909
782.888488,0.300000,0.125062
782.921957,0.248485,0.049376
782.955427,0.220455,0.157077
782.988896,0.002273,0.102165
783.022365,0.186364,0.064403
783.055833,0.329545,0.255808
783.089301,0.234091,0.131283
783.122769,1.102273,0.310115
783.156237,0.459091,0.158815
783.189704,1.354545,0.235882
783.223172,3.168182,0.232519
783.256638,7.279545,0.668378
783.290105,6.818182,1.263767
783.323571,2.104545,0.339444
783.357037,0.797727,0.286947
783.390503,0.447727,0.213525
783.423969,0.124242,0.129924
783.457434,0.493182,0.089672
783.490899,0.281818,0.180278
783.524364,0.279545,0.096604
783.557828,0.536364,0.082947
783.591292,0.118182,0.039886
783.624756,-0.140909,0.025206
783.658220,0.252273,0.164530
783.691683,0.379545,0.377004
783.725146,0.204545,0.152035
783.758609,0.965909,0.234749
783.792072,0.479545,0.208184
783.825534,0.284091,0.079342
783.858996,0.090909,0.096424
783.892458,0.347727,0.057350
783.925919,-0.124242,0.066959
783.959381,-0.186364,0.096504
783.992842,0.059091,0.185572
784.026302,0.070455,0.020423
784.059763,0.063636,0.111062
784.093223,0.300000,0.289521
784.126683,0.490909,0.115708
784.160142,0.368182,0.069048
784.193601,0.161364,0.117233
784.227060,0.502273,0.211141
784.260519,0.311364,0.140776
784.293978,0.050000,0.119464
784.327436,0.393182,0.101811
784.360894,0.545455,0.160706
784.394352,0.590152,0.194139
784.427809,0.031061,0.133816
784.461266,0.245455,0.220677
784.494723,0.000000,0.055670
784.528180,0.093182,0.001968
784.561636,0.479545,0.231893
784.595092,0.388636,0.157635
784.628548,0.634091,0.166092
784.662003,0.531818,0.217364
784.695458,0.186364,0.032381
784.728913,0.202273,0.175173
784.762368,0.204545,0.067228
784.795823,0.895455,0.324825
784.829277,0.250000,0.098412
784.862731,0.165909,0.042927
784.896184,0.209091,0.164957
784.929637,0.022727,0.130063
784.963091,0.920455,0.299093
784.996543,0.954545,0.204545
785.029996,1.863636,0.486916
785.063448,6.579545,0.178503
785.096900,7.237121,0.785295
785.130352,6.884091,1.097637
785.163803,4.140909,0.599944
785.197254,1.556818,0.554931
785.230705,0.620455,0.243264
785.264156,0.375000,0.197070
785.297606,0.659091,0.273437
785.331056,0.629545,0.205135
785.364506,0.420455,0.250709
785.397955,0.268182,0.253111
785.431405,0.450000,0.230018
785.464854,-0.248485,0.019285
785.498302,0.095455,0.102726
785.531751,0.297727,0.140666
785.565199,0.155303,0.080953
785.598647,-0.254545,0.035791
785.632094,-0.031061,0.018568
785.665542,0.045455,0.022727
785.698989,0.390909,0.175869
785.732436,0.431818,0.241327
785.765882,-0.093182,0.178966
785.799328,0.700000,0.167443
785.832774,0.759091,0.183894
785.866220,0.536364,0.237628
785.899665,0.154545,0.190530
785.933111,0.045455,0.050820
785.966555,-0.077273,0.207641
786.000000,0.315909,0.190024
786.033444,0.327273,0.114812
786.066888,0.306818,0.098248
786.100332,0.029545,0.092228
786.133776,0.062121,0.049114
786.167219,0.277273,0.186903
786.200662,0.111364,0.088629
786.234104,0.272727,0.160706
786.267547,-0.027273,0.166205
786.300989,0.411364,0.133120
786.334431,0.936364,0.153943
786.367872,0.559091,0.116487
786.401314,0.259091,0.119982
786.434755,0.495455,0.283527
786.468196,0.643182,0.217598
786.501636,0.138636,0.050347
786.535076,0.070455,0.020423
786.568516,0.359091,0.136420
786.601956,0.256818,0.130494
786.635395,0.402273,0.204504
786.668834,0.529545,0.138557
786.702273,0.095455,0.073399
786.735712,0.252273,0.107583
786.769150,0.211364,0.061269
786.802588,0.704545,0.225848
786.836026,1.390909,0.260998
786.869463,4.834091,1.077466
786.902900,8.293182,1.322369
786.936337,13.711364,0.409449
786.969774,18.829545,1.025549
787.003210,9.006818,1.077107
787.036646,2.629545,0.487163
787.070082,0.411364,0.161200
787.103518,0.240909,0.212558
787.136953,-0.011364,0.157766
787.170388,0.254545,0.170803
787.203823,0.470455,0.149323
787.237257,-0.025000,0.021651
787.270691,-0.113636,0.059047
787.304125,0.248485,0.148547
787.337559,0.384091,0.240316
787.370992,-0.211364,0.088804
787.404425,-0.040909,0.106673
787.437858,0.250000,0.108402
787.471290,0.265909,0.271843
787.504723,0.525000,0.274434
787.538155,0.295455,0.155395
787.571586,0.497727,0.442048
787.605018,0.540909,0.262330
787.638449,0.124242,0.049167
787.671880,0.215909,0.153619
787.705310,0.140909,0.025206
787.738741,0.150000,0.174083
787.772171,0.186364,0.032381
787.805600,0.100000,0.141056
787.839030,0.531818,0.275994
787.872459,0.568182,0.241327
787.905888,0.370455,0.100277
787.939317,0.934091,0.573569
787.972745,0.279545,0.064553
788.006173,0.820455,0.188249
788.039601,0.129545,0.187093
788.073028,0.272727,0.215610
788.106456,0.506818,0.226781
788.139883,0.025000,0.038753
788.173309,0.636364,0.304918
788.206736,0.227273,0.171587
788.240162,0.300000,0.047019
788.273588,0.163636,0.081565
788.307013,0.252273,0.086266
788.340439,0.115909,0.037397
788.373864,-0.020455,0.060163
788.407288,0.313636,0.162034
788.440713,0.215909,0.095583
788.474137,0.434091,0.222690
788.507561,0.470455,0.082471
788.540985,0.248485,0.081057
788.574408,0.325000,0.182905
788.607831,0.254545,0.035791
788.641254,0.459091,0.243543
788.674677,0.322727,0.121181
788.708099,2.090909,0.381656
788.741521,8.052273,0.524191
788.774943,16.602273,0.438753
788.808364,22.115152,0.734031
788.841785,17.595455,0.949889
788.875206,6.715909,0.723423
788.908627,1.752273,0.233447
788.942047,0.341667,0.121899
788.975467,0.600000,0.202158
789.008887,-0.068182,0.019682
789.042306,0.020455,0.104168
789.075726,0.477273,0.161907
789.109145,-0.020455,0.060163
789.142563,0.329545,0.058773
789.175982,-0.093182,0.111358
789.209400,0.636364,0.213201
789.242817,0.256818,0.093617
789.276235,0.231818,0.038233
789.309652,0.197727,0.143681
789.343069,0.177273,0.272377
789.376486,0.529545,0.189016
789.409902,0.161364,0.098037
789.443319,0.372727,0.096745
789.476735,0.465909,0.140446
789.510150,0.300000,0.097171
789.543565,0.125000,0.158583
789.576980,0.175000,0.328617
789.610395,0.065909,0.130771
789.643810,0.427273,0.134610
789.677224,-0.140909,0.025206
789.710638,0.315909,0.231447
789.744052,0.627273,0.210911
789.777465,0.065909,0.194325
789.810878,0.286364,0.111038
789.844291,0.290909,0.145312
789.877703,0.659091,0.313892
789.911116,0.350000,0.099248
789.944528,0.647727,0.249159
789.977939,0.310606,0.121861
790.011351,-0.022727,0.113067
790.044762,0.297727,0.129181
790.078173,-0.002273,0.085666
790.111583,0.325000,0.074577
790.144994,0.186364,0.115954
790.178404,0.143182,0.045270
790.211813,-0.786364,0.056909
790.245223,0.045455,0.050820
790.278632,0.252273,0.047714
790.312041,0.170455,0.140446
790.345450,0.504545,0.363373
790.378858,0.281818,0.075103
790.412266,0.168182,0.074239
790.445674,0.984091,0.261875
790.479081,0.000000,0.032141
790.512488,0.496970,0.165270
790.545895,1.240909,0.114700
790.579302,3.761364,0.507530
790.612708,11.909091,1.071320
790.646115,25.795455,1.686227
790.679520,35.197727,0.790755
790.712926,22.513636,1.279420
790.746331,6.181061,0.996810
790.779736,1.079545,0.270051
790.813141,0.836364,0.409646
790.846545,0.124242,0.103353
790.879949,0.070455,0.020423
790.913353,0.384091,0.203034
790.946757,0.002273,0.072612
790.980160,0.393182,0.116037
791.013563,0.370455,0.053142
791.046966,0.461364,0.158876
791.080368,0.050000,0.053926
791.113771,0.343182,0.206064
791.147173,0.431818,0.317166
791.180574,0.068182,0.059047
791.213976,0.093182,0.064313
791.247377,0.497727,0.337335
791.280777,0.520455,0.184508
791.314178,-0.072727,0.076331
791.347578,0.390909,0.231640
791.380978,0.522727,0.291716
791.414378,0.134091,0.070078
791.447777,-0.147727,0.158583
791.481176,0.345455,0.111526
791.514575,0.484091,0.366091
791.547973,0.345455,0.111526
791.581372,0.472727,0.202362
791.614770,1.213636,0.471431
791.648167,0.556818,0.186291
791.681565,0.800000,0.275066
791.714962,1.002273,0.426406
791.748359,0.118182,0.039886
791.781755,0.193182,0.104613
791.815152,0.004545,0.126193
791.848548,0.184091,0.071175
791.881943,0.336364,0.185586
791.915339,0.488636,0.049206
791.948734,0.350000,0.093900
791.982129,0.211364,0.118678
792.015523,0.145455,0.149241
792.048918,0.302273,0.080890
792.082312,0.115909,0.165000
792.115705,0.368182,0.241840
792.149099,0.313636,0.141622
792.182492,0.031061,0.074230
792.215885,0.084091,0.318561
792.249278,0.465909,0.033614
792.282670,0.496970,0.219032
792.316062,0.345455,0.111526
792.349454,0.370455,0.131480
792.382845,0.793182,0.282502
792.416236,1.947727,0.388342
792.449627,4.534848,0.185238
792.483018,12.268939,0.770950
792.516408,31.595455,1.242671
792.549798,36.913636,1.272571
792.583188,25.718182,0.702460
792.616578,8.079545,0.497508
792.649967,3.140909,0.551496
792.683356,1.397727,0.308026
792.716745,0.248485,0.049376
792.750133,0.004545,0.059396
792.783521,0.229545,0.074369
792.816909,0.403788,0.185763
792.850296,0.400000,0.068635
792.883684,0.968182,0.512181
792.917071,0.168182,0.117370
792.950457,0.188636,0.049101
792.983844,-0.279545,0.005905
793.017230,0.320455,0.170844
793.050616,0.550000,0.315271
793.084001,0.252273,0.410608
793.117386,0.534091,0.128941
793.150771,0.588636,0.198532
793.184156,0.409091,0.188787
793.217541,0.377273,0.137627
793.250925,0.029545,0.086446
793.284309,0.211364,0.088804
793.317692,0.281818,0.075103
793.351075,0.275000,0.083837
793.384458,0.447727,0.111959
793.417841,0.238636,0.090017
793.451223,0.763636,0.259450
793.484606,0.761364,0.100842
793.517988,0.331818,0.129106
793.551369,0.525000,0.316397
793.584750,0.395455,0.066920
793.618131,0.168182,0.133821
793.651512,0.227273,0.145526
793.684893,0.104545,0.157901
793.718273,0.395455,0.121692
793.751653,-0.143182,0.078623
793.785032,0.318182,0.186031
793.818411,0.672727,0.197505
793.851790,-0.002273,0.136756
793.885169,0.325000,0.228143
793.918548,0.211364,0.099761
793.951926,0.868182,0.365075
793.985304,0.118182,0.060473
794.018681,0.375000,0.076018
794.052059,0.429545,0.454493
794.085436,0.425000,0.087633
794.118812,0.331818,0.176440
794.152189,0.300000,0.133066
794.185565,0.413636,0.143794
794.218941,0.668182,0.203622
794.252317,0.838636,0.362646
794.285692,0.683333,0.165566
794.319067,4.002273,0.775466
794.352442,17.193182,1.419352
794.385816,38.580303,1.408021
794.419190,61.344697,2.524589
794.452564,55.472727,2.404850
794.485938,26.822727,0.616923
794.519311,3.944697,0.362290
794.552684,2.095455,0.520266
794.586057,0.806818,0.122785
794.619429,0.518182,0.153270
794.652802,0.113636,0.108402
794.686173,0.631818,0.171933
794.719545,-0.054545,0.120089
794.752916,-0.059091,0.363544
794.786287,0.302273,0.074230
794.819658,0.124242,0.066959
794.853029,0.556818,0.250194
794.886399,0.252273,0.300144
794.919769,0.409091,0.441284
794.953138,0.786364,0.303450
794.986508,-0.127273,0.200103
795.019877,0.286364,0.147061
795.053245,0.621212,0.431818
795.086614,0.229545,0.121771
795.119982,0.709091,0.190801
795.153350,0.204545,0.103528
795.186718,0.386364,0.308915
795.220085,0.756818,0.260787
795.253452,0.347727,0.086147
795.286819,0.090909,0.045455
795.320185,0.659091,0.243458
795.353551,0.945455,0.411558
795.386917,0.893182,0.292262
795.420283,0.025000,0.087751
795.453648,0.015909,0.103571
795.487013,0.500000,0.188787
795.520378,0.018182,0.070711
795.553742,0.134091,0.095095
795.587107,0.429545,0.259039
795.620471,0.163636,0.152256
795.653834,0.590152,0.269840
795.687197,0.411364,0.355235
795.720560,0.270455,0.239239
795.753923,0.347727,0.280539
795.787286,0.502273,0.253190
795.820648,0.159091,0.067228
795.854010,0.131818,0.107637
795.887371,0.511364,0.098248
795.920733,0.486364,0.318076
795.954094,0.252273,0.201245
795.987454,0.093182,0.032201
796.020815,0.377273,0.117370
796.054175,0.577273,0.122538
796.087535,0.427273,0.196929
796.120894,0.900000,0.346559
796.154254,1.018182,0.316293
796.187613,2.445455,0.121373
796.220971,10.134091,0.241923
796.254330,34.725758,1.439961
796.287688,90.728030,2.950248
796.321046,136.268182,1.295740
796.354403,94.237879,4.962651
796.387761,26.995455,2.251495
796.421118,5.994697,0.478736
796.454474,1.615152,0.185920
796.487831,0.217424,0.214056
796.521187,0.447727,0.120835
796.554543,0.528030,0.050347
796.587898,0.402273,0.108919
796.621254,0.438636,0.101047
796.654609,0.190909,0.090110
796.687963,0.115909,0.037397
796.721318,-0.188636,0.080890
796.754672,-0.122727,0.177607
796.788026,0.427273,0.113818
796.821379,0.124242,0.018741
796.854732,0.415909,0.173336
796.888085,0.172727,0.143955
796.921438,0.062121,0.049114
796.954790,0.234091,0.026577
796.988142,0.915909,0.367780
797.021494,0.240909,0.105308
797.054846,0.088636,0.097509
797.088197,0.138636,0.050347
797.121548,0.484091,0.169265
797.154899,0.577273,0.283016
797.188249,0.390909,0.208150
797.221599,0.217424,0.049311
797.254949,0.556818,0.130929
797.288298,1.579545,0.492552
797.321648,0.184091,0.044347
797.354996,-0.088636,0.097509
797.388345,0.043182,0.052359
797.421693,0.325000,0.113107
797.455041,0.418182,0.177098
797.488389,0.477273,0.239177
797.521737,0.381818,0.130321
797.555084,0.234091,0.105057
797.588431,0.120455,0.084634
797.621777,0.581818,0.067113
797.655124,-0.093182,0.055705
797.688470,0.297727,0.140666
797.721815,0.281818,0.050412
797.755161,0.388636,0.167177
797.788506,0.440909,0.116487
797.821851,0.465909,0.179225
797.855196,0.800000,0.173800
797.888540,0.329545,0.108253
797.921884,0.181818,0.157459
797.955228,0.447727,0.157897
797.988571,0.393182,0.208383
798.021914,0.845455,0.236057
798.055257,-0.072727,0.109658
798.088599,3.659091,0.485721
798.121942,13.480303,0.633773
798.155284,47.675000,1.769748
798.188625,105.659091,1.105665
798.221967,153.872727,6.351999
798.255308,97.650000,2.467419
798.288649,22.775000,0.649820
798.321989,4.814394,0.221153
798.355329,2.700000,0.589456
798.388669,0.979545,0.345430
798.422009,1.161364,0.193659
798.455348,0.393182,0.208383
798.488687,-0.077273,0.094993
798.522026,0.552273,0.261381
798.555365,0.072727,0.076331
798.588703,0.295455,0.168166
798.622041,0.252273,0.047714
798.655378,0.445455,0.058032
798.688716,0.575000,0.165250
798.722053,0.900000,0.298516
798.755389,0.134091,0.070078
798.788726,0.554545,0.230119
798.822062,0.284091,0.120663
798.855398,0.302273,0.133816
798.888733,0.631818,0.302563
798.922069,0.248485,0.145028
798.955404,0.181818,0.055670
798.988738,1.170455,0.370104
799.022073,0.217424,0.074369
799.055407,0.922727,0.172293
799.088741,0.652273,0.112190
799.122074,0.452273,0.183244
799.155408,1.086364,0.379777
799.188741,1.138636,0.103920
799.222073,1.815909,0.283870
799.255406,0.525000,0.316397
799.288738,0.459091,0.165191
799.322069,0.743182,0.152404
799.355401,0.265909,0.130692
799.388732,0.172727,0.128806
799.422063,0.397727,0.043643
799.455394,0.434848,0.081407
799.488724,0.961364,0.212190
799.522054,0.315909,0.303141
799.555384,0.711364,0.175997
799.588713,0.528030,0.093452
799.622042,-0.097727,0.268208
799.655371,0.084091,0.129501
799.688700,0.147727,0.241260
799.722028,0.248485,0.049376
799.755356,0.279545,0.116037
799.788684,0.902273,0.134969
799.822011,0.045455,0.050820
799.855338,0.793182,0.086565
799.888665,0.915909,0.278228
799.921992,0.843182,0.191918
799.955318,1.763636,0.392544
799.988644,4.161364,0.754534
800.021969,18.170455,1.513914
800.055295,67.977273,4.332080
800.088620,176.163636,2.439017
800.121945,266.397727,6.700256
800.155269,203.084091,4.147915
800.188593,64.804545,1.226993
800.221917,11.518182,1.349296
800.255241,3.188636,0.087041
800.288564,1.638636,0.317375
800.321887,0.621212,0.134456
800.355210,0.179545,0.188249
800.388532,0.779545,0.224721
800.421854,0.427273,0.162432
800.455176,0.186364,0.147342
800.488498,0.031061,0.018568
800.521819,0.150000,0.174083
800.555140,0.547727,0.233115
800.588461,0.368182,0.189101
800.621781,0.750000,0.302153
800.655101,0.206818,0.048252
800.688421,0.595455,0.162671
800.721740,0.248485,0.067113
800.755060,0.343182,0.164215
800.788379,0.225000,0.095637
800.821697,0.263636,0.155678
800.855015,0.509091,0.257049
800.888334,0.509091,0.203177
800.921651,0.415909,0.170329
800.954969,0.568182,0.245570
800.988286,0.606818,0.270891
801.021603,0.238636,0.277131
801.054919,0.836364,0.476341
801.088235,1.475000,0.445366
801.121551,0.697727,0.074230
801.154867,0.302273,0.049101
801.188183,0.538636,0.191325
801.221498,0.195455,0.142059
801.254812,0.509091,0.090682
801.288127,0.863636,0.309124
801.321441,0.256818,0.022355
801.354755,0.865909,0.123456
801.388069,0.675000,0.165094
801.421382,0.443182,0.522820
801.454695,0.768182,0.425935
801.488008,0.620455,0.271367
801.521320,0.229545,0.117453
801.554632,0.597727,0.183187
801.587944,0.813636,0.085129
801.621256,0.341667,0.019911
801.654567,0.170455,0.107054
801.687878,0.204545,0.130063
801.721189,0.265909,0.130692
801.754499,0.384091,0.222225
801.787809,0.797727,0.172199
801.821119,0.647727,0.157766
801.854428,0.638636,0.188797
801.887737,1.334091,0.170481
801.921046,8.131818,0.615917
801.954355,33.122727,1.119481
801.987663,133.640909,1.752276
802.020971,281.475000,8.604847
802.054279,315.865909,4.552467
802.087586,164.840909,5.138513
802.120894,33.134091,1.884132
802.154200,5.800000,0.332844
802.187507,1.646212,0.456251
802.220813,0.552273,0.091666
802.254119,1.087121,0.278061
802.287425,0.327273,0.166267
802.320730,0.776515,0.304229
802.354035,-0.062121,0.218785
802.387340,0.579545,0.309698
802.420644,0.484091,0.083405
802.453949,0.327273,0.114812
802.487252,0.527273,0.202362
802.520556,0.615909,0.399902
802.553859,0.484091,0.149841
802.587162,0.661364,0.207936
802.620465,0.238636,0.090017
802.653767,0.340909,0.218879
802.687069,0.661364,0.264563
802.720371,0.638636,0.237070
802.753673,0.606818,0.244851
802.786974,0.343182,0.225227
802.820275,0.256818,0.050654
802.853576,0.420455,0.105841
802.886876,0.297727,0.179398
802.920176,0.527273,0.382521
802.953476,0.168182,0.092793
802.986775,1.009091,0.433918
803.020074,1.640909,0.772604
803.053373,0.722727,0.100695
803.086672,0.890909,0.416399
803.119970,0.650000,0.122538
803.153268,0.155303,0.018844
803.186565,0.062121,0.037137
803.219863,0.211364,0.099761
803.253160,0.629545,0.166185
803.286457,0.397727,0.181374
803.319753,0.000000,0.064282
803.353049,0.293182,0.115009
803.386345,0.797727,0.281311
803.419641,0.528030,0.162158
803.452936,0.631818,0.284980
803.486231,1.220455,0.213645
803.519525,0.479545,0.172948
803.552820,0.356818,0.195860
803.586114,0.827273,0.193008
803.619408,0.490909,0.063960
803.652701,1.242424,0.132522
803.685994,0.797727,0.433136
803.719287,0.513636,0.101309
803.752580,0.602273,0.100842
803.785872,1.102273,0.425909
803.819164,3.018182,0.529931
803.852456,13.095455,0.594235
803.885747,55.259091,2.518800
803.919038,178.686364,2.980379
803.952329,364.954545,7.314193
803.985620,420.654545,7.914799
804.018910,176.424242,4.637366
804.052200,25.788636,2.095704
804.085489,3.509848,0.149565
804.118779,1.604545,0.214011
804.152068,0.936364,0.356086
804.185357,1.756818,0.422915
804.218645,2.847727,0.464475
804.251933,0.838636,0.196308
804.285221,0.556818,0.152776
804.318508,1.086364,0.268172
804.351796,0.900758,0.149668
804.385083,0.700000,0.085884
804.418369,-0.009091,0.131190
804.451656,0.625000,0.126922
804.484942,0.093182,0.085060
804.518227,-0.031061,0.049101
804.551513,0.472727,0.217613
804.584798,0.595455,0.279490
804.618083,0.279545,0.032679
804.651367,0.559091,0.065358
804.684652,0.875000,0.155291
804.717936,-0.155303,0.103372
804.751219,0.704545,0.108402
804.784503,0.265909,0.159200
804.817786,1.027273,0.503644
804.851068,0.988636,0.187672
804.884351,0.915909,0.129501
804.917633,1.415909,0.651432
804.950915,0.929545,0.206815
804.984196,1.052273,0.206515
805.017478,1.140909,0.305958
805.050759,0.368182,0.094339
805.084039,0.134091,0.123456
805.117320,0.186364,0.096504
805.150600,1.106818,0.326805
805.183879,0.827273,0.340242
805.217159,0.931818,0.211681
805.250438,0.675000,0.214128
805.283717,0.402273,0.185986
805.316995,0.872727,0.230343
805.350274,1.263636,0.287228
805.383552,0.652273,0.147933
805.416829,0.259091,0.090539
805.450107,0.520455,0.111126
805.483384,0.613636,0.282724
805.516660,1.000000,0.661047
805.549937,0.962879,0.053142
805.583213,0.807576,0.040846
805.616489,1.850000,0.600736
805.649764,1.913636,0.509633
805.683040,1.242424,0.055670
805.716315,1.825000,0.572198
805.749589,3.938636,0.196913
805.782864,16.990152,1.027516
805.816138,84.645455,0.938094
805.849411,340.313636,9.667628
805.882685,686.687879,16.323115
805.915958,862.559091,12.516144
805.949231,400.795455,7.001577
805.982504,74.638636,1.868841
806.015776,9.349242,1.429863
806.049048,4.131061,0.423611
806.082319,0.527273,0.146022
806.115591,0.820455,0.137509
806.148862,1.009091,0.249504
806.182133,0.413636,0.096504
806.215403,0.893182,0.283288
806.248673,0.636364,0.324610
806.281943,0.484091,0.053142
806.315213,0.775000,0.366119
806.348482,0.818182,0.167011
806.381751,0.217424,0.067065
806.415019,0.206818,0.263585
806.448288,1.309091,0.397773
806.481556,1.027273,0.231193
806.514823,0.776515,0.241795
806.548091,0.677273,0.198691
806.581358,0.538636,0.122110
806.614625,0.434091,0.128580
806.647891,0.168182,0.074239
806.681158,0.217424,0.103422
806.714424,0.679545,0.164686
806.747689,0.279545,0.085242
806.780955,0.572727,0.126703
806.814220,0.820455,0.340460
806.847484,1.181818,0.071870
806.880749,1.111364,0.233115
806.914013,0.506818,0.233514
806.947277,0.706818,0.186596
806.980540,1.120455,0.339594
807.013803,0.800000,0.185307
807.047066,0.613636,0.137777
807.080329,0.683333,0.051174
807.113591,0.986364,0.375839
807.146853,0.911364,0.065899
807.180115,1.172727,0.330070
807.213376,1.329545,0.125901
807.246637,0.786364,0.185015
807.279898,0.813636,0.085129
807.313159,0.954545,0.134456
807.346419,1.413636,0.614742
807.379679,1.350000,0.384534
807.412938,1.377273,0.585407
807.446198,1.804545,0.619530
807.479457,1.400000,0.627339
807.512715,1.627273,0.402805
807.545974,1.025000,0.141763
807.579232,0.869697,0.082947
807.612490,1.273485,0.195597
807.645747,2.100000,0.256848
807.679004,4.384091,0.965202
807.712261,11.600000,0.568600
807.745518,62.245455,1.453956
807.778774,294.671970,7.396787
807.812030,890.152273,9.122311
807.845285,1234.162121,29.227976
807.878541,940.986364,17.736097
807.911796,231.472727,6.446573
807.945051,24.600000,0.920586
807.978305,3.263636,0.406380
808.011559,1.102273,0.393771
808.044813,0.936364,0.257009
808.078066,0.714394,0.122617
808.111320,1.134091,0.281587
808.144573,0.700000,0.179358
808.177825,0.511364,0.121729
808.211078,1.197727,0.338604
808.244330,1.009091,0.386043
808.277581,0.665909,0.232071
808.310833,1.395455,0.575799
808.344084,1.020455,0.165469
808.377335,1.381818,0.248217
808.410585,0.868182,0.267401
808.443835,0.915909,0.272602
808.477085,0.600000,0.145738
808.510335,0.656818,0.299972
808.543584,0.868182,0.335587
808.576833,0.496970,0.122137
808.610082,0.852273,0.112924
808.643330,0.000000,0.085038
808.676578,0.597727,0.174523
808.709826,1.190909,0.382278
808.743073,0.965909,0.311362
808.776320,0.990909,0.344166
808.809567,1.284091,0.427120
808.842814,1.801515,0.301057
808.876060,0.827273,0.289378
808.909306,0.727273,0.167011
808.942552,0.952273,0.237397
808.975797,1.081818,0.249089
809.009042,0.997727,0.211018
809.042287,0.861364,0.188660
809.075531,1.204545,0.405763
809.108775,1.045455,0.380979
809.142019,1.631818,0.513068
809.175262,1.325000,0.134009
809.208506,1.270455,0.420797
809.241748,0.962879,0.076963
809.274991,2.327273,0.166267
809.308233,0.631818,0.114158
809.341475,1.172727,0.191395
809.374717,1.397727,0.172619
809.407958,1.745455,0.263558
809.441199,1.087121,0.189725
809.474440,1.463636,0.131190
809.507680,1.543182,0.254309
809.540921,2.154545,0.247174
809.574160,2.484848,0.316554
809.607400,2.184091,0.233779
809.640639,5.901515,0.499354
809.673878,21.056818,0.824999
809.707117,80.229545,2.364282
809.740355,381.715909,7.251004
809.773593,1014.129545,13.675965
809.806831,1325.325000,28.823818
809.840068,814.564394,17.935061
809.873305,154.365909,2.994589
809.906542,18.418939,0.649104
809.939778,6.745455,0.396837
809.973015,5.227273,0.858538
810.006250,3.385606,0.141143
810.039486,4.068939,0.320581
810.072721,4.354545,1.266976
810.105956,3.465909,0.354420
810.139191,0.714394,0.159265
810.172425,1.427273,0.338232
810.205659,1.087121,0.399953
810.238893,1.472727,0.456405
810.272126,1.538636,0.423647
810.305359,1.102273,0.236394
810.338592,0.804545,0.337919
810.371825,0.638636,0.207065
810.405057,1.097727,0.385204
810.438289,1.263636,0.240222
810.471520,1.454545,0.717980
810.504751,1.263636,0.331631
810.537982,1.118182,0.023619
810.571213,1.018182,0.084060
810.604443,0.403788,0.067449
810.637673,0.868182,0.446537
810.670903,1.334091,0.440855
810.704133,0.897727,0.397687
810.737362,0.528030,0.209421
810.770591,0.829545,0.297361
810.803819,0.195455,0.221600
810.837047,0.652273,0.418063
810.870275,0.763636,0.073011
810.903503,0.650000,0.165566
810.936730,0.279545,0.225066
810.969957,0.807576,0.159464
811.003184,0.668182,0.136874
811.036410,0.776515,0.165749
811.069636,1.277273,0.520861
811.102862,1.109091,0.282111
811.136087,-0.047727,0.068588
811.169312,1.521970,0.466140
811.202537,0.925000,0.240703
811.235762,1.359091,0.227761
811.268986,1.684091,0.469035
811.302210,1.006818,0.297951
811.335433,0.621212,0.050820
811.368656,1.428788,0.275019
811.401879,1.659091,0.263822
811.435102,1.013636,0.430182
811.468324,1.886364,0.431669
811.501546,3.654545,0.324674
811.534768,1.904545,0.687563
811.567990,2.690909,0.499131
811.601211,4.390909,0.585411
811.634432,10.094697,0.564391
811.667652,65.134091,1.986331
811.700872,265.659091,9.975402
811.734092,734.325000,13.663011
811.767312,1035.840152,21.972339
811.800531,697.472727,12.260855
811.833750,132.025000,1.490900
811.866969,15.259091,1.199404
811.900187,2.311364,0.249966
811.933405,1.884091,0.364280
811.966623,2.311364,0.326489
811.999840,2.365909,0.385432
812.033057,0.372727,0.200876
812.066274,0.661364,0.248453
812.099490,0.875000,0.266683
812.132707,0.962879,0.210111
812.165923,0.528030,0.067831
812.199138,0.368182,0.122874
812.232353,0.840909,0.261857
812.265568,1.304545,0.616353
812.298783,0.807576,0.305958
812.331997,0.518182,0.290945
812.365211,0.961364,0.295076
812.398425,0.620455,0.216289
812.431638,0.943182,0.361276
812.464851,0.584091,0.046396
812.498064,0.031818,0.136117
812.531277,0.341667,0.206765
812.564489,0.759091,0.210114
812.597701,0.984091,0.340733
812.630912,0.084091,0.208878
812.664123,1.377273,0.774553
