#{
#    "background_file": "Backgrounds\\\\bg_785.995nm_13bin_219st_244en_10.0s_110g_4x_13_seq.txt",
#    "ccd_image_settings": [
#        1,
#        13,
#        1,
#        1600,
#        219,
#        244
#    ],
#    "ccd_temperature": "-87",
#    "cdRatios": {
#        "mean": 0.9471803035049223,
#        "std": 0.008174618374997571
#    },
#    "center_lambda": 786.0,
#    "comments": "",
#    "dark_region": 80.56824045342097,
#    "date": "10/22/20 17:54:46PM",
#    "eff_field": 1.5,
#    "exposure": 10.0,
#    "fel_lambda": "15.0",
#    "fel_pol": "H",
#    "fel_pulses": 44,
#    "fel_pyro_cal": "0.012",
#    "fel_reprate": "1.07",
#    "fel_transmission": "1.0",
#    "fel_transmission_fits": {
#        "A": 1.0,
#        "C": 0.0,
#        "Mu": 0.0
#    },
#    "fieldInt": {
#        "mean": 5175.291874999999,
#        "std": 249.96132318902062
#    },
#    "fieldStrength": {
#        "mean": 32.9929375,
#        "std": 0.8252796108147753
#    },
#    "fpTime": {
#        "mean": 1.07892119391951,
#        "std": 0.06387065941727132
#    },
#    "gain": 110,
#    "grating": 3,
#    "images_in_sequence": [
#        "hsg_820nm_c123_a00_HAna529.txt",
#        "hsg_820nm_c123_a00_HAna530.txt",
#        "hsg_820nm_c123_a00_HAna531.txt",
#        "hsg_820nm_c123_a00_HAna532.txt"
#    ],
#    "nir_lambda": "819.98",
#    "nir_pola": "00",
#    "nir_polg": "0",
#    "nir_power": "100.0",
#    "pulseEnergies": {
#        "mean": 1.5785833333333332,
#        "std": 0.08085936341928779
#    },
#    "pyroVoltage": {
#        "mean": 0.13895271304939275,
#        "std": 0.007717025287191569
#    },
#    "rotatorAngle": 0.0,
#    "sample_Temp": "55",
#    "sample_name": "L001218.C1",
#    "series": "820_Fan",
#    "slits": "60",
#    "spec_step": "",
#    "window_trans": 0.92,
#    "y_max": 2,
#    "y_min": 1
#}
#
#
#
#
#
#
#
#
#
#
#
#
#
#
#
#
#
#
#
#
#
#
#
#
#
#
Wavelength,Signal,error
nm,arb. u.,arb.u.
Wavelength,820_Fan,error
759.194366,1.045455,0.464104
759.228015,0.363636,0.140100
759.261663,0.909091,0.173086
759.295311,0.590909,0.104149
759.328959,0.272727,0.195507
759.362607,0.477273,0.214107
759.396254,0.477273,0.218879
759.429901,1.136364,0.113636
759.463548,0.500000,0.223838
759.497194,0.136364,0.130558
759.530841,0.227273,0.174571
759.564487,0.659091,0.214107
759.598133,0.136364,0.130558
759.631779,0.113636,0.152035
759.665424,0.113636,0.117546
759.699069,0.227273,0.068182
759.732714,0.318182,0.145526
759.766359,0.045455,0.022727
759.800003,0.977273,0.491009
759.833648,0.318182,0.196824
759.867292,-0.181818,0.064282
759.900935,0.181818,0.154144
759.934579,0.500000,0.152459
759.968222,0.136364,0.113636
760.001865,0.659091,0.152035
760.035508,0.750000,0.223549
760.069151,0.159091,0.103528
760.102793,0.272727,0.115887
760.136435,0.136364,0.099066
760.170077,0.113636,0.074516
760.203718,0.022727,0.098412
760.237360,-0.340909,0.098412
760.271001,0.159091,0.141476
760.304642,0.000000,0.045455
760.338283,0.318182,0.165457
760.371923,0.113636,0.067228
760.405563,0.590909,0.298931
760.439203,0.340909,0.196496
760.472843,0.659091,0.387532
760.506482,0.704545,0.174201
760.540122,0.681818,0.162305
760.573761,0.568182,0.093015
760.607399,0.590909,0.358630
760.641038,0.681818,0.464104
760.674676,0.477273,0.121861
760.708314,0.431818,0.059047
760.741952,0.204545,0.074516
760.775589,0.840909,0.249742
760.809227,0.477273,0.108402
760.842864,0.386364,0.121861
760.876501,-0.045455,0.145526
760.910137,0.090909,0.140100
760.943774,0.272727,0.124482
760.977410,0.772727,0.466325
761.011046,0.363636,0.124482
761.044681,0.431818,0.113067
761.078317,0.545455,0.184637
761.111952,0.545455,0.220349
761.145587,0.272727,0.238366
761.179221,0.500000,0.298931
761.212856,-0.159091,0.177142
761.246490,0.613636,0.296980
761.280124,0.500000,0.188787
761.313758,0.431818,0.325207
761.347391,1.272727,0.668043
761.381024,0.272727,0.316554
761.414657,0.068182,0.087286
761.448290,0.772727,0.214409
761.481923,0.477273,0.218879
761.515555,0.522727,0.148599
761.549187,0.818182,0.372061
761.582819,0.545455,0.224989
761.616450,0.409091,0.337865
761.650082,0.863636,0.498448
761.683713,0.272727,0.090909
761.717344,0.181818,0.064282
761.750974,0.090909,0.071870
761.784605,-0.090909,0.055670
761.818235,0.704545,0.315533
761.851865,1.250000,0.453835
761.885494,0.250000,0.174201
761.919124,0.409091,0.122390
761.952753,0.295455,0.232608
761.986382,1.204545,0.359888
762.020010,0.772727,0.228406
762.053639,0.363636,0.150756
762.087267,0.500000,0.081944
762.120895,0.545455,0.187414
762.154523,0.022727,0.074516
762.188150,0.090909,0.160706
762.221777,1.159091,0.336141
762.255404,0.363636,0.115887
762.289031,0.795455,0.282724
762.322658,0.500000,0.162305
762.356284,0.704545,0.245570
762.389910,-0.136364,0.068182
762.423536,0.500000,0.104149
762.457161,0.090909,0.160706
762.490786,0.613636,0.310583
762.524411,0.204545,0.081153
762.558036,0.022727,0.049533
762.591661,0.159091,0.087286
762.625285,0.068182,0.308915
762.658909,0.295455,0.265773
762.692533,0.136364,0.068182
762.726157,0.613636,0.476054
762.759780,0.159091,0.098412
762.793403,0.386364,0.209227
762.827026,0.181818,0.085038
762.860649,0.386364,0.185683
762.894271,0.136364,0.250000
762.927893,0.318182,0.235093
762.961515,0.568182,0.263822
762.995137,0.431818,0.232608
763.028758,0.727273,0.167011
763.062379,0.704545,0.158685
763.096000,0.545455,0.303220
763.129621,0.386364,0.117546
763.163241,1.590909,0.392991
763.196862,1.545455,0.314918
763.230481,0.431818,0.093015
763.264101,0.795455,0.286355
763.297721,0.386364,0.158685
763.331340,0.477273,0.103528
763.364959,0.159091,0.037689
763.398578,0.295455,0.429269
763.432196,0.522727,0.484656
763.465814,-0.113636,0.108402
763.499432,0.568182,0.152035
763.533050,0.704545,0.289940
763.566668,0.204545,0.130063
763.600285,0.136364,0.050820
763.633902,0.545455,0.106600
763.667519,0.909091,0.296327
763.701135,0.204545,0.117546
763.734752,0.045455,0.093707
763.768368,0.545455,0.115887
763.801984,0.477273,0.318790
763.835599,0.522727,0.216506
763.869215,1.022727,0.130063
763.902830,0.500000,0.277422
763.936444,0.227273,0.039365
763.970059,0.159091,0.152035
764.003673,0.886364,0.273437
764.037288,0.363636,0.224989
764.070901,-0.068182,0.286355
764.104515,0.113636,0.161907
764.138128,0.318182,0.130558
764.171742,0.068182,0.049533
764.205354,0.136364,0.138245
764.238967,0.590909,0.113636
764.272580,-0.136364,0.050820
764.306192,0.568182,0.148599
764.339804,0.340909,0.117546
764.373415,0.113636,0.130063
764.407027,0.159091,0.168166
764.440638,0.272727,0.124482
764.474249,0.590909,0.334794
764.507860,-0.363636,0.032141
764.541470,0.204545,0.103528
764.575080,0.454545,0.085038
764.608690,0.090909,0.115887
764.642300,0.727273,0.509213
764.675909,0.204545,0.369799
764.709519,0.750000,0.291716
764.743128,0.363636,0.213201
764.776736,0.681818,0.162305
764.810345,0.250000,0.152035
764.843953,-0.159091,0.059047
764.877561,0.136364,0.149033
764.911169,0.477273,0.126029
764.944776,0.363636,0.233992
764.978384,0.409091,0.228406
765.011991,0.727273,0.455680
765.045598,0.295455,0.067228
765.079204,0.795455,0.152035
765.112810,0.386364,0.059047
765.146416,0.863636,0.355738
765.180022,0.636364,0.160706
765.213628,-0.045455,0.104149
765.247233,0.181818,0.210764
765.280838,0.613636,0.103528
765.314443,0.727273,0.255113
765.348048,0.795455,0.174201
765.381652,0.227273,0.177506
765.415256,0.159091,0.067228
765.448860,0.500000,0.243723
765.482463,0.136364,0.075378
765.516067,0.295455,0.093015
765.549670,0.113636,0.133975
765.583273,0.318182,0.068182
765.616875,0.068182,0.074516
765.650478,-0.068182,0.037689
765.684080,0.454545,0.147290
765.717682,0.522727,0.180034
765.751283,0.113636,0.185683
765.784885,0.568182,0.087286
765.818486,0.659091,0.174201
765.852087,0.363636,0.132522
765.885687,0.454545,0.178955
765.919288,0.659091,0.312242
765.952888,0.295455,0.081153
765.986488,0.386364,0.133975
766.020087,0.500000,0.273673
766.053687,0.181818,0.205804
766.087286,0.454545,0.215610
766.120885,0.454545,0.263087
766.154484,0.250000,0.214107
766.188082,0.318182,0.152459
766.221680,0.613636,0.251801
766.255278,0.659091,0.458365
766.288876,0.136364,0.130558
766.322473,0.500000,0.475103
766.356070,0.272727,0.140100
766.389667,0.931818,0.424428
766.423264,-0.045455,0.039365
766.456860,0.750000,0.177142
766.490457,1.000000,0.446520
766.524053,0.295455,0.087286
766.557648,0.295455,0.130063
766.591244,0.363636,0.178955
766.624839,0.136364,0.174571
766.658434,0.318182,0.122390
766.692029,0.545455,0.140100
766.725623,0.545455,0.374828
766.759217,0.227273,0.050820
766.792811,0.431818,0.355557
766.826405,0.022727,0.204230
766.859999,0.568182,0.188445
766.893592,0.909091,0.472377
766.927185,0.204545,0.049533
766.960777,0.113636,0.177142
766.994370,0.590909,0.204545
767.027962,0.181818,0.055670
767.061554,0.909091,0.548288
767.095146,0.454545,0.090909
767.128737,-0.022727,0.049533
767.162329,0.227273,0.162305
767.195920,0.659091,0.524577
767.229510,0.363636,0.106600
767.263101,0.386364,0.081153
767.296691,0.181818,0.106600
767.330281,-0.090909,0.096424
767.363871,-0.204545,0.059047
767.397460,0.295455,0.093015
767.431050,0.318182,0.093707
767.464639,0.522727,0.199107
767.498227,0.659091,0.103528
767.531816,0.681818,0.312448
767.565404,-0.250000,0.074516
767.598992,0.181818,0.101639
767.632580,0.136364,0.068182
767.666168,0.750000,0.196496
767.699755,0.500000,0.122390
767.733342,0.500000,0.214409
767.766929,0.500000,0.209535
767.800515,0.659091,0.361321
767.834101,0.121212,0.037113
767.867687,0.318182,0.269871
767.901273,0.931818,0.228123
767.934859,0.227273,0.346917
767.968444,0.977273,0.449259
768.002029,0.409091,0.282952
768.035614,0.250000,0.059047
768.069198,0.022727,0.067228
768.102783,-0.431818,0.241327
768.136367,0.090909,0.064282
768.169950,-0.068182,0.087286
768.203534,0.477273,0.234818
768.237117,0.704545,0.158685
768.270700,0.204545,0.059047
768.304283,0.704545,0.434055
768.337866,0.636364,0.306608
768.371448,0.522727,0.141476
768.405030,0.272727,0.205804
768.438612,0.181818,0.064282
768.472193,0.931818,0.340720
768.505775,0.500000,0.226134
768.539356,0.522727,0.168166
768.572936,0.454545,0.184637
768.606517,0.136364,0.216804
768.640097,0.227273,0.145526
768.673677,0.159091,0.168166
768.707257,0.272727,0.096424
768.740836,0.727273,0.434798
768.774416,1.090909,0.402728
768.807995,0.522727,0.247665
768.841574,0.545455,0.140100
768.875152,0.704545,0.257882
768.908730,0.318182,0.075378
768.942308,0.000000,0.106600
768.975886,0.409091,0.346917
769.009464,0.863636,0.194182
769.043041,0.431818,0.152035
769.076618,0.568182,0.255871
769.110195,0.000000,0.071870
769.143771,0.136364,0.039365
769.177348,0.636364,0.203279
769.210924,-0.045455,0.134456
769.244499,0.477273,0.130063
769.278075,0.250000,0.049533
769.311650,0.340909,0.067228
769.345225,0.409091,0.104149
769.378800,0.636364,0.170075
769.412375,0.818182,0.210764
769.445949,0.181818,0.090909
769.479523,0.159091,0.108402
769.513097,0.363636,0.299793
769.546670,0.704545,0.201685
769.580243,-0.159091,0.059047
769.613816,0.818182,0.115887
769.647389,-0.181818,0.096424
769.680962,0.000000,0.064282
769.714534,0.227273,0.068182
769.748106,0.954545,0.349882
769.781678,0.022727,0.019682
769.815249,-0.136364,0.068182
769.848820,0.113636,0.492060
769.882391,0.227273,0.199431
769.915962,0.068182,0.019682
769.949533,0.363636,0.187414
769.983103,0.409091,0.152459
770.016673,0.386364,0.165066
770.050243,0.159091,0.037689
770.083812,-0.068182,0.185683
770.117381,0.431818,0.108402
770.150950,0.272727,0.032141
770.184519,0.181818,0.101639
770.218088,0.454545,0.192847
770.251656,0.068182,0.103528
770.285224,0.068182,0.059047
770.318791,0.181818,0.071870
770.352359,0.295455,0.074516
770.385926,0.363636,0.157459
770.419493,0.454545,0.132522
770.453060,0.386364,0.535298
770.486626,0.136364,0.068182
770.520192,0.318182,0.232885
770.553758,0.272727,0.140100
770.587324,1.795455,0.468397
770.620890,0.886364,0.441137
770.654455,1.000000,0.524207
770.688020,0.431818,0.059047
770.721584,0.250000,0.049533
770.755149,0.250000,0.103528
770.788713,0.204545,0.037689
770.822277,0.340909,0.191166
770.855841,-0.250000,0.188445
770.889404,0.272727,0.106600
770.922967,0.204545,0.103528
770.956530,0.704545,0.225848
770.990093,0.181818,0.115887
771.023655,0.204545,0.067228
771.057217,0.295455,0.049533
771.090779,0.022727,0.098412
771.124341,0.204545,0.340720
771.157902,0.522727,0.177142
771.191463,0.750000,0.339200
771.225024,0.227273,0.068182
771.258585,0.477273,0.193849
771.292145,0.386364,0.206743
771.325705,0.454545,0.215610
771.359265,0.113636,0.067228
771.392825,0.454545,0.132522
771.426384,0.204545,0.117546
771.459943,0.340909,0.133975
771.493502,1.181818,0.646830
771.527061,0.318182,0.134456
771.560619,0.159091,0.121861
771.594177,-0.022727,0.067228
771.627735,0.477273,0.188445
771.661293,0.250000,0.059047
771.694850,-0.136364,0.068182
771.728407,0.250000,0.130063
771.761964,0.636364,0.140100
771.795521,0.386364,0.182880
771.829077,0.318182,0.134456
771.862633,0.477273,0.209227
771.896189,0.431818,0.133975
771.929744,-0.045455,0.050820
771.963300,0.681818,0.241594
771.996855,0.681818,0.367170
772.030409,0.863636,0.291937
772.063964,0.295455,0.130063
772.097518,0.113636,0.074516
772.131072,0.750000,0.372582
772.164626,0.659091,0.296980
772.198180,0.227273,0.134456
772.231733,0.795455,0.307239
772.265286,0.431818,0.315533
772.298839,0.022727,0.121861
772.332391,0.409091,0.145526
772.365943,0.840909,0.261857
772.399495,0.795455,0.152035
772.433047,0.931818,0.345238
772.466598,0.159091,0.087286
772.500150,-0.022727,0.067228
772.533701,0.590909,0.309124
772.567251,0.090909,0.178955
772.600802,0.113636,0.087286
772.634352,0.068182,0.113067
772.667902,0.681818,0.409722
772.701452,0.295455,0.249742
772.735001,0.045455,0.050820
772.768550,0.409091,0.081944
772.802099,0.181818,0.200722
772.835648,0.500000,0.093707
772.869196,0.795455,0.218879
772.902744,0.386364,0.209227
772.936292,0.295455,0.037689
772.969840,0.318182,0.050820
773.003387,0.840909,0.305553
773.036934,0.431818,0.074516
773.070481,0.113636,0.059047
773.104028,0.500000,0.162305
773.137574,0.340909,0.177142
773.171120,0.227273,0.183233
773.204666,0.681818,0.317369
773.238212,0.704545,0.345238
773.271757,0.909091,0.484256
773.305302,0.636364,0.140100
773.338847,0.295455,0.074516
773.372391,0.181818,0.032141
773.405936,0.204545,0.067228
773.439480,0.318182,0.118094
773.473024,0.454545,0.229534
773.506567,0.477273,0.133975
773.540110,0.227273,0.093707
773.573653,0.340909,0.087286
773.607196,0.409091,0.068182
773.640739,0.386364,0.199107
773.674281,-0.068182,0.087286
773.707823,0.181818,0.000000
773.741365,0.227273,0.118094
773.774906,0.454545,0.195507
773.808447,0.977273,0.214107
773.841988,0.272727,0.045455
773.875529,0.477273,0.174201
773.909070,0.181818,0.181818
773.942610,-0.022727,0.067228
773.976150,0.227273,0.130558
774.009689,0.522727,0.429269
774.043229,0.068182,0.158685
774.076768,0.568182,0.103528
774.110307,0.386364,0.155395
774.143845,0.931818,0.049533
774.177384,1.159091,0.376718
774.210922,1.500000,0.360068
774.244460,0.931818,0.261857
774.277997,1.068182,0.307239
774.311535,0.840909,0.211681
774.345072,0.227273,0.277422
774.378609,0.159091,0.074516
774.412145,0.522727,0.277189
774.445682,0.159091,0.171210
774.479218,0.272727,0.096424
774.512754,0.522727,0.113067
774.546289,-0.045455,0.104149
774.579824,0.113636,0.218879
774.613359,0.500000,0.312448
774.646894,0.704545,0.295236
774.680429,0.431818,0.121861
774.713963,0.454545,0.071870
774.747497,0.318182,0.122390
774.781031,0.136364,0.050820
774.814564,0.136364,0.050820
774.848097,0.272727,0.115887
774.881630,0.250000,0.059047
774.915163,0.500000,0.152459
774.948696,0.318182,0.281121
774.982228,0.545455,0.055670
775.015760,0.409091,0.104149
775.049291,0.136364,0.050820
775.082823,0.204545,0.152035
775.116354,0.977273,0.243458
775.149885,0.227273,0.099066
775.183416,0.159091,0.245570
775.216946,-0.136364,0.068182
775.250476,0.431818,0.152035
775.284006,0.204545,0.059047
775.317535,0.090909,0.147290
775.351065,0.113636,0.155395
775.384594,0.113636,0.081153
775.418123,0.204545,0.074516
775.451651,0.818182,0.309959
775.485180,0.750000,0.346731
775.518708,0.568182,0.214107
775.552235,0.409091,0.302367
775.585763,-0.113636,0.081153
775.619290,0.750000,0.209227
775.652817,0.454545,0.136364
775.686344,0.909091,0.233992
775.719870,0.750000,0.218879
775.753397,0.318182,0.068182
775.786923,0.590909,0.183233
775.820448,-0.022727,0.171210
775.853974,0.840909,0.325207
775.887499,0.840909,0.293481
775.921024,0.363636,0.045455
775.954549,1.522727,0.482520
775.988073,2.136364,0.288377
776.021597,0.863636,0.204545
776.055121,0.613636,0.223549
776.088645,0.477273,0.291716
776.122168,-0.181818,0.055670
776.155691,0.295455,0.223549
776.189214,0.022727,0.117546
776.222737,0.409091,0.118094
776.256259,-0.136364,0.068182
776.289781,0.613636,0.225848
776.323303,0.454545,0.132522
776.356824,0.590909,0.232885
776.390346,0.545455,0.115887
776.423867,0.681818,0.337865
776.457387,0.295455,0.230377
776.490908,0.659091,0.223549
776.524428,0.727273,0.309959
776.557948,-0.250000,0.081153
776.591468,0.113636,0.152035
776.624987,0.409091,0.226134
776.658506,-0.022727,0.081153
776.692025,0.136364,0.165457
776.725544,-0.227273,0.075378
776.759062,0.340909,0.103528
776.792581,0.500000,0.346917
776.826099,0.750000,0.308915
776.859616,1.295455,0.511616
776.893134,0.477273,0.130063
776.926651,0.568182,0.495199
776.960167,0.159091,0.117546
776.993684,0.250000,0.019682
777.027200,0.181818,0.115887
777.060716,0.363636,0.115887
777.094232,0.636364,0.289271
777.127748,0.409091,0.138245
777.161263,0.931818,0.375344
777.194778,0.318182,0.223838
777.228293,0.636364,0.224989
777.261807,0.250000,0.059047
777.295322,0.136364,0.093707
777.328836,0.045455,0.134456
777.362349,0.613636,0.310583
777.395863,1.045455,0.282952
777.429376,0.295455,0.263822
777.462889,0.636364,0.369274
777.496401,0.750000,0.201685
777.529914,0.431818,0.161907
777.563426,0.636364,0.384353
777.596938,0.772727,0.382332
777.630449,0.227273,0.068182
777.663961,0.795455,0.261857
777.697472,0.454545,0.111340
777.730983,0.772727,0.266016
777.764493,3.363636,0.735044
777.798004,1.818182,0.321412
777.831514,1.159091,0.535298
777.865023,1.045455,0.260126
777.898533,0.545455,0.263087
777.932042,0.545455,0.085038
777.965551,0.772727,0.380979
777.999060,-0.045455,0.050820
778.032568,0.340909,0.296980
778.066076,0.863636,0.343926
778.099584,0.431818,0.188445
778.133092,0.159091,0.067228
778.166599,0.659091,0.188445
778.200107,0.204545,0.257882
778.233613,0.022727,0.113067
778.267120,0.000000,0.032141
778.300626,0.590909,0.145526
778.334132,0.340909,0.400639
778.367638,0.000000,0.115887
778.401144,0.568182,0.117546
778.434649,0.295455,0.263822
778.468154,0.113636,0.117546
778.501659,0.295455,0.081153
778.535163,0.681818,0.358630
778.568668,0.636364,0.292820
778.602172,1.000000,0.303220
778.635675,0.931818,0.554261
778.669179,0.318182,0.104149
778.702682,0.590909,0.334794
778.736185,0.590909,0.194182
778.769688,0.500000,0.355738
778.803190,0.250000,0.049533
778.836692,0.340909,0.199107
778.870194,0.113636,0.037689
778.903696,1.204545,0.349697
778.937197,0.227273,0.050820
778.970698,0.181818,0.055670
779.004199,0.590909,0.281121
779.037699,0.613636,0.310583
779.071200,0.318182,0.113636
779.104700,0.318182,0.050820
779.138199,0.636364,0.326198
779.171699,0.159091,0.152035
779.205198,0.318182,0.152459
779.238697,0.454545,0.373447
779.272196,0.477273,0.269632
779.305694,0.136364,0.162305
779.339192,0.045455,0.068182
779.372690,0.409091,0.093707
779.406188,0.500000,0.204545
779.439685,0.477273,0.191166
779.473182,0.409091,0.250000
779.506679,0.954545,0.228406
779.540176,2.159091,0.291716
779.573672,3.840909,0.713198
779.607168,4.750000,0.598185
779.640664,3.068182,0.396752
779.674160,1.636364,0.319801
779.707655,0.250000,0.049533
779.741150,0.454545,0.195507
779.774644,0.204545,0.049533
779.808139,0.477273,0.074516
779.841633,0.840909,0.466186
779.875127,0.181818,0.055670
779.908621,1.431818,0.247665
779.942114,0.022727,0.218879
779.975607,0.636364,0.215610
780.009100,-0.068182,0.218879
780.042593,0.590909,0.122390
780.076085,0.136364,0.328564
780.109577,0.409091,0.122390
780.143069,0.954545,0.204545
780.176560,0.318182,0.075378
780.210052,0.340909,0.108402
780.243543,0.681818,0.138245
780.277033,0.181818,0.115887
780.310524,-0.113636,0.067228
780.344014,0.159091,0.108402
780.377504,0.431818,0.182880
780.410994,0.659091,0.081153
780.444483,0.409091,0.039365
780.477972,0.636364,0.298065
780.511461,0.454545,0.251031
780.544950,0.750000,0.286355
780.578438,0.045455,0.075378
780.611926,0.477273,0.218879
780.645414,0.318182,0.122390
780.678902,0.590909,0.207055
780.712389,0.500000,0.145526
780.745876,0.318182,0.162305
780.779363,0.954545,0.394303
780.812849,0.500000,0.183233
780.846335,0.477273,0.133975
780.879821,0.068182,0.161907
780.913307,0.295455,0.148599
780.946792,0.613636,0.113067
780.980277,0.795455,0.263822
781.013762,0.363636,0.318182
781.047247,0.636364,0.255113
781.080731,0.636364,0.272727
781.114215,0.477273,0.081153
781.147699,0.272727,0.178955
781.181183,0.090909,0.147290
781.214666,0.000000,0.032141
781.248149,0.431818,0.037689
781.281632,0.500000,0.152459
781.315114,0.772727,0.207055
781.348596,1.545455,0.270827
781.382078,3.272727,0.804815
781.415560,6.022727,0.942771
781.449041,4.977273,0.703720
781.482522,3.386364,0.684370
781.516003,1.840909,0.488901
781.549484,0.886364,0.399347
781.582964,0.681818,0.130558
781.616444,0.681818,0.252058
781.649924,0.318182,0.122390
781.683404,0.386364,0.286355
781.716883,0.045455,0.075378
781.750362,0.568182,0.130063
781.783841,0.500000,0.122390
781.817319,0.204545,0.130063
781.850797,0.454545,0.373447
781.884275,0.522727,0.182880
781.917753,0.250000,0.191166
781.951230,0.204545,0.074516
781.984707,1.022727,0.355557
782.018184,0.318182,0.093707
782.051661,0.386364,0.413330
782.085137,0.272727,0.096424
782.118613,0.363636,0.173086
782.152089,0.659091,0.158685
782.185564,0.613636,0.188445
782.219040,0.568182,0.126029
782.252515,0.522727,0.165066
782.285989,0.431818,0.152035
782.319464,0.363636,0.115887
782.352938,0.333333,0.182763
782.386412,0.090909,0.132522
782.419885,0.068182,0.081153
782.453359,0.477273,0.126029
782.486832,0.636364,0.244780
782.520305,0.136364,0.081944
782.553777,0.318182,0.281121
782.587249,-0.113636,0.141476
782.620721,-0.022727,0.161907
782.654193,0.431818,0.074516
782.687665,0.363636,0.085038
782.721136,0.409091,0.068182
782.754607,0.568182,0.211681
782.788077,0.136364,0.122390
782.821548,0.295455,0.087286
782.855018,0.136364,0.050820
782.888488,0.681818,0.152459
782.921957,0.795455,0.372582
782.955427,0.636364,0.373447
782.988896,0.590909,0.291937
783.022365,0.431818,0.277189
783.055833,0.386364,0.204230
783.089301,0.477273,0.209227
783.122769,0.795455,0.267710
783.156237,1.409091,0.093707
783.189704,3.318182,0.790243
783.223172,8.022727,0.751977
783.256638,8.477273,1.326920
783.290105,9.477273,1.613596
783.323571,4.204545,0.684370
783.357037,1.568182,0.328368
783.390503,1.863636,0.375516
783.423969,0.363636,0.160706
783.457434,0.681818,0.152459
783.490899,0.227273,0.093707
783.524364,0.113636,0.165066
783.557828,0.204545,0.108402
783.591292,0.522727,0.103528
783.624756,0.090909,0.055670
783.658220,0.181818,0.085038
783.691683,0.704545,0.113067
783.725146,-0.159091,0.067228
783.758609,0.590909,0.113636
783.792072,0.431818,0.152035
783.825534,0.863636,0.387698
783.858996,0.522727,0.230377
783.892458,0.113636,0.059047
783.925919,0.568182,0.221226
783.959381,0.159091,0.191166
783.992842,0.250000,0.302153
784.026302,0.295455,0.074516
784.059763,0.113636,0.113067
784.093223,0.522727,0.296980
784.126683,0.840909,0.218879
784.160142,0.386364,0.074516
784.193601,0.522727,0.269632
784.227060,0.431818,0.204230
784.260519,0.431818,0.232608
784.293978,0.340909,0.081153
784.327436,0.613636,0.247665
784.360894,0.909091,0.289271
784.394352,0.477273,0.049533
784.427809,0.318182,0.050820
784.461266,0.227273,0.050820
784.494723,0.386364,0.137777
784.528180,-0.045455,0.022727
784.561636,0.931818,0.565334
784.595092,0.636364,0.178955
784.628548,0.795455,0.251801
784.662003,0.681818,0.325405
784.695458,0.272727,0.032141
784.728913,0.409091,0.068182
784.762368,0.477273,0.196496
784.795823,0.363636,0.101639
784.829277,0.522727,0.148599
784.862731,0.045455,0.075378
784.896184,0.113636,0.037689
784.929637,0.545455,0.296327
784.963091,1.386364,0.267710
784.996543,1.613636,0.483589
785.029996,5.272727,0.675730
785.063448,9.477273,0.764242
785.096900,13.250000,1.081577
785.130352,12.863636,0.750000
785.163803,6.272727,1.211174
785.197254,2.136364,0.443619
785.230705,0.613636,0.214107
785.264156,0.613636,0.188445
785.297606,0.363636,0.136364
785.331056,0.522727,0.059047
785.364506,0.704545,0.161907
785.397955,0.545455,0.296327
785.431405,0.181818,0.064282
785.464854,0.022727,0.257882
785.498302,0.704545,0.196496
785.531751,0.227273,0.159091
785.565199,0.204545,0.019682
785.598647,-0.250000,0.037689
785.632094,0.477273,0.241327
785.665542,0.136364,0.145526
785.698989,0.204545,0.081153
785.732436,0.318182,0.134456
785.765882,0.431818,0.243458
785.799328,0.840909,0.310583
785.832774,0.295455,0.133975
785.866220,0.590909,0.312448
785.899665,0.340909,0.206743
785.933111,0.022727,0.121861
785.966555,0.181818,0.170075
786.000000,1.386364,0.395448
786.033444,0.613636,0.130063
786.066888,0.795455,0.081153
786.100332,0.454545,0.071870
786.133776,0.340909,0.177142
786.167219,0.363636,0.106600
786.200662,0.409091,0.122390
786.234104,0.113636,0.059047
786.267547,0.318182,0.273673
786.300989,0.795455,0.273437
786.334431,0.545455,0.147290
786.367872,0.522727,0.152035
786.401314,0.522727,0.108402
786.434755,0.363636,0.140100
786.468196,0.590909,0.104149
786.501636,0.681818,0.228406
786.535076,0.227273,0.022727
786.568516,0.500000,0.099066
786.601956,0.159091,0.113067
786.635395,0.318182,0.113636
786.668834,0.250000,0.133975
786.702273,-0.068182,0.019682
786.735712,0.590909,0.219174
786.769150,0.545455,0.231774
786.802588,0.568182,0.263822
786.836026,1.750000,0.171210
786.869463,5.022727,0.923955
786.902900,13.575758,1.833552
786.936337,23.212121,0.883932
786.969774,28.568182,0.436429
787.003210,10.181818,0.280201
787.036646,2.757576,0.594685
787.070082,0.863636,0.372755
787.103518,1.090909,0.501032
787.136953,0.681818,0.413486
787.170388,0.477273,0.152035
787.203823,0.681818,0.252058
787.237257,0.045455,0.104149
787.270691,0.068182,0.165066
787.304125,0.250000,0.137777
787.337559,0.318182,0.145526
787.370992,-0.090909,0.078730
787.404425,0.568182,0.165066
787.437858,0.772727,0.194182
787.471290,0.477273,0.121861
787.504723,0.159091,0.117546
787.538155,0.590909,0.228406
787.571586,0.272727,0.071870
787.605018,0.272727,0.132522
787.638449,0.522727,0.199107
787.671880,0.409091,0.104149
787.705310,0.272727,0.000000
787.738741,0.409091,0.214409
787.772171,0.522727,0.098412
787.805600,0.113636,0.037689
787.839030,0.590909,0.241594
787.872459,0.772727,0.331694
787.905888,0.522727,0.171210
787.939317,0.681818,0.199431
787.972745,0.113636,0.158685
788.006173,0.272727,0.055670
788.039601,0.363636,0.085038
788.073028,-0.022727,0.037689
788.106456,0.477273,0.037689
788.139883,0.295455,0.103528
788.173309,0.840909,0.214107
788.206736,0.136364,0.050820
788.240162,0.295455,0.158685
788.273588,0.272727,0.064282
788.307013,0.659091,0.137777
788.340439,0.568182,0.312242
788.373864,0.159091,0.103528
788.407288,0.409091,0.171587
788.440713,0.500000,0.113636
788.474137,0.454545,0.085038
788.507561,0.340909,0.103528
788.540985,0.068182,0.037689
788.574408,0.772727,0.122390
788.607831,0.250000,0.074516
788.641254,1.113636,0.214107
788.674677,1.522727,0.758815
788.708099,3.727273,0.591783
788.741521,15.000000,1.103619
788.774943,25.181818,0.473470
788.808364,38.272727,0.940920
788.841785,28.545455,0.837524
788.875206,9.977273,0.598185
788.908627,2.727273,0.590034
788.942047,0.613636,0.152035
788.975467,0.772727,0.487975
789.008887,0.113636,0.087286
789.042306,0.250000,0.171210
789.075726,0.477273,0.067228
789.109145,0.477273,0.468397
789.142563,0.272727,0.140100
789.175982,0.068182,0.158685
789.209400,0.522727,0.130063
789.242817,0.386364,0.103528
789.276235,0.136364,0.093707
789.309652,0.431818,0.108402
789.343069,-0.022727,0.059047
789.376486,0.250000,0.074516
789.409902,0.363636,0.233992
789.443319,0.704545,0.113067
789.476735,0.318182,0.122390
789.510150,0.181818,0.115887
789.543565,0.204545,0.037689
789.576980,0.000000,0.032141
789.610395,0.363636,0.111340
789.643810,0.181818,0.111340
789.677224,0.909091,0.301511
789.710638,0.840909,0.291716
789.744052,0.295455,0.037689
789.777465,0.068182,0.204230
789.810878,0.159091,0.059047
789.844291,0.545455,0.238366
789.877703,0.295455,0.074516
789.911116,0.636364,0.085038
789.944528,0.681818,0.245833
789.977939,0.977273,0.457236
790.011351,0.136364,0.075378
790.044762,0.522727,0.251801
790.078173,0.977273,0.303858
790.111583,0.931818,0.196496
790.144994,0.659091,0.263822
790.178404,0.386364,0.081153
790.211813,0.000000,0.439525
790.245223,0.136364,0.022727
790.278632,0.409091,0.068182
790.312041,0.363636,0.140100
790.345450,0.409091,0.104149
790.378858,0.636364,0.238366
790.412266,0.477273,0.158685
790.445674,0.386364,0.152035
790.479081,0.318182,0.068182
790.512488,0.886364,0.305553
790.545895,1.840909,0.298715
790.579302,5.409091,0.646430
790.612708,18.659091,0.664457
790.646115,41.727273,1.047922
790.679520,56.431818,3.674709
790.712926,31.757576,0.459443
790.746331,10.613636,1.200626
790.779736,2.969697,0.112876
790.813141,1.340909,0.436429
790.846545,0.840909,0.133975
790.879949,0.318182,0.165457
790.913353,0.136364,0.093707
790.946757,0.818182,0.259131
790.980160,0.318182,0.075378
791.013563,0.522727,0.087286
791.046966,0.500000,0.258132
791.080368,0.454545,0.101639
791.113771,0.500000,0.291937
791.147173,0.454545,0.085038
791.180574,0.250000,0.158685
791.213976,0.181818,0.085038
791.247377,0.045455,0.068182
791.280777,0.704545,0.180034
791.314178,0.863636,0.348402
791.347578,0.204545,0.049533
791.380978,0.477273,0.188445
791.414378,0.318182,0.149033
791.447777,0.000000,0.115887
791.481176,0.477273,0.067228
791.514575,0.795455,0.121861
791.547973,0.727273,0.071870
791.581372,0.863636,0.174571
791.614770,0.363636,0.085038
791.648167,0.840909,0.152035
791.681565,0.886364,0.354101
791.714962,0.431818,0.148599
791.748359,0.386364,0.037689
791.781755,0.318182,0.183233
791.815152,0.386364,0.216506
791.848548,0.204545,0.081153
791.881943,0.181818,0.055670
791.915339,0.750000,0.468397
791.948734,0.659091,0.165066
791.982129,0.522727,0.126029
792.015523,0.272727,0.090909
792.048918,0.727273,0.280201
792.082312,0.272727,0.143740
792.115705,0.363636,0.124482
792.149099,0.431818,0.141476
792.182492,0.340909,0.165066
792.215885,0.068182,0.243458
792.249278,0.613636,0.214107
792.282670,0.568182,0.257882
792.316062,1.022727,0.465077
792.349454,1.113636,0.269632
792.382845,1.000000,0.229534
792.416236,3.340909,0.269632
792.449627,6.121212,0.522563
792.483018,20.454545,1.478147
792.516408,41.909091,1.788681
792.549798,58.181818,1.443495
792.583188,41.977273,1.413620
792.616578,14.727273,1.002579
792.649967,3.090909,0.147290
792.683356,2.386364,0.804414
792.716745,0.954545,0.297198
792.750133,0.386364,0.130063
792.783521,0.272727,0.055670
792.816909,0.363636,0.055670
792.850296,0.909091,0.359350
792.883684,0.613636,0.418299
792.917071,0.409091,0.334794
792.950457,0.386364,0.103528
792.983844,0.204545,0.168166
793.017230,1.113636,0.553329
793.050616,0.363636,0.078730
793.084001,0.159091,0.113067
793.117386,0.318182,0.099066
793.150771,0.295455,0.087286
793.184156,0.181818,0.045455
793.217541,0.250000,0.049533
793.250925,0.136364,0.075378
793.284309,0.454545,0.167011
793.317692,0.409091,0.204545
793.351075,0.909091,0.296327
793.384458,0.681818,0.216804
793.417841,1.000000,0.316554
793.451223,0.704545,0.295236
793.484606,0.886364,0.148599
793.517988,1.363636,0.402728
793.551369,0.818182,0.085038
793.584750,0.840909,0.241327
793.618131,0.681818,0.162305
793.651512,0.204545,0.108402
793.684893,0.590909,0.281121
793.718273,0.863636,0.209535
793.751653,0.522727,0.196496
793.785032,0.727273,0.220349
793.818411,0.681818,0.214409
793.851790,0.750000,0.180034
793.885169,0.477273,0.223549
793.918548,0.250000,0.037689
793.951926,0.545455,0.167011
793.985304,0.568182,0.232608
794.018681,0.272727,0.136364
794.052059,0.477273,0.141476
794.085436,0.500000,0.068182
794.118812,0.568182,0.087286
794.152189,0.522727,0.113067
794.185565,1.022727,0.130063
794.218941,0.613636,0.108402
794.252317,0.909091,0.316554
794.285692,2.113636,0.365584
794.319067,6.613636,0.538185
794.352442,25.212121,0.868606
794.385816,65.818182,3.332162
794.419190,109.113636,3.855121
794.452564,90.522727,3.591251
794.485938,37.727273,1.755452
794.519311,9.340909,0.647927
794.552684,2.886364,0.438789
794.586057,0.863636,0.284772
794.619429,1.090909,0.326198
794.652802,0.545455,0.106600
794.686173,0.522727,0.307239
794.719545,0.500000,0.122390
794.752916,0.022727,0.117546
794.786287,0.363636,0.251031
794.819658,0.704545,0.300439
794.853029,0.636364,0.205804
794.886399,0.727273,0.055670
794.919769,1.113636,0.532396
794.953138,0.454545,0.160706
794.986508,-0.136364,0.081944
795.019877,0.113636,0.074516
795.053245,0.431818,0.188445
795.086614,0.386364,0.087286
795.119982,0.659091,0.180034
795.153350,0.431818,0.141476
795.186718,0.818182,0.440698
795.220085,0.318182,0.104149
795.253452,0.704545,0.037689
795.286819,0.454545,0.115887
795.320185,0.431818,0.108402
795.353551,0.818182,0.265043
795.386917,0.568182,0.103528
795.420283,0.568182,0.354101
795.453648,0.295455,0.098412
795.487013,0.477273,0.177142
795.520378,0.454545,0.231774
795.553742,0.477273,0.148599
795.587107,0.431818,0.059047
795.620471,0.318182,0.152459
795.653834,0.681818,0.081944
795.687197,0.363636,0.111340
795.720560,-0.045455,0.050820
795.753923,0.136364,0.039365
795.787286,0.954545,0.199431
795.820648,0.704545,0.087286
795.854010,0.340909,0.168166
795.887371,0.750000,0.325207
795.920733,0.886364,0.148599
795.954094,0.613636,0.201685
795.987454,0.727273,0.224989
796.020815,0.795455,0.245570
796.054175,0.750000,0.204230
796.087535,1.000000,0.255113
796.120894,0.909091,0.147290
796.154254,1.136364,0.346917
796.187613,3.409091,0.485854
796.220971,16.659091,1.411792
796.254330,56.477273,1.662784
796.287688,148.477273,2.927741
796.321046,220.613636,6.512256
796.354403,154.272727,1.315436
796.387761,48.181818,0.420301
796.421118,8.954545,0.708202
796.454474,2.363636,0.568636
796.487831,1.545455,0.132522
796.521187,0.431818,0.148599
796.554543,0.772727,0.118094
796.587898,0.863636,0.330133
796.621254,0.500000,0.081944
796.654609,0.340909,0.191166
796.687963,0.886364,0.275319
796.721318,0.159091,0.165066
796.754672,-0.045455,0.075378
796.788026,0.522727,0.191166
796.821379,1.159091,0.295236
796.854732,0.363636,0.071870
796.888085,0.659091,0.204230
796.921438,0.636364,0.299793
796.954790,0.522727,0.201685
796.988142,0.977273,0.399347
797.021494,0.340909,0.087286
797.054846,0.295455,0.234818
797.088197,0.477273,0.093015
797.121548,0.454545,0.140100
797.154899,0.613636,0.284545
797.188249,0.772727,0.214409
797.221599,0.590909,0.130558
797.254949,0.931818,0.180034
797.288298,1.022727,0.218879
797.321648,1.522727,0.519630
797.354996,0.272727,0.184637
797.388345,0.750000,0.174201
797.421693,0.590909,0.228406
797.455041,0.590909,0.346917
797.488389,0.363636,0.078730
797.521737,0.545455,0.140100
797.555084,0.454545,0.367873
797.588431,0.340909,0.074516
797.621777,0.409091,0.075378
797.655124,0.636364,0.210764
797.688470,0.772727,0.260126
797.721815,0.727273,0.178955
797.755161,0.590909,0.183233
797.788506,0.909091,0.492716
797.821851,0.840909,0.312242
797.855196,0.977273,0.453835
797.888540,0.954545,0.331694
797.921884,0.522727,0.218879
797.955228,1.045455,0.269871
797.988571,1.000000,0.147290
798.021914,1.250000,0.180034
798.055257,1.272727,0.457942
798.088599,4.590909,0.482654
798.121942,19.431818,0.626032
798.155284,72.704545,4.083880
798.188625,162.939394,3.943078
798.221967,244.727273,2.714173
798.255308,165.181818,0.449977
798.288649,41.454545,1.935691
798.321989,8.500000,1.008999
798.355329,3.818182,0.505139
798.388669,1.409091,0.291937
798.422009,0.318182,0.039365
798.455348,0.704545,0.133975
798.488687,1.136364,0.577201
798.522026,0.818182,0.309959
798.555365,0.727273,0.338629
798.588703,1.568182,0.098412
798.622041,0.272727,0.032141
798.655378,0.340909,0.141476
798.688716,0.545455,0.167011
798.722053,0.590909,0.254099
798.755389,0.863636,0.134456
798.788726,0.477273,0.148599
798.822062,0.295455,0.204230
798.855398,0.545455,0.085038
798.888733,0.727273,0.178955
798.922069,0.863636,0.419686
798.955404,0.409091,0.093707
798.988738,0.954545,0.266016
799.022073,0.681818,0.159091
799.055407,0.477273,0.126029
799.088741,0.522727,0.093015
799.122074,1.022727,0.508578
799.155408,0.409091,0.145526
799.188741,1.386364,0.478219
799.222073,0.772727,0.174571
799.255406,0.363636,0.090909
799.288738,1.000000,0.205804
799.322069,0.659091,0.263822
799.355401,0.363636,0.140100
799.388732,0.272727,0.136364
799.422063,0.590909,0.130558
799.455394,0.636364,0.115887
799.488724,1.431818,0.348217
799.522054,0.431818,0.180034
799.555384,1.250000,0.424428
799.588713,0.931818,0.180034
799.622042,0.886364,0.345238
799.655371,0.590909,0.267951
799.688700,0.568182,0.241327
799.722028,0.772727,0.177506
799.755356,0.613636,0.168166
799.788684,0.659091,0.241327
799.822011,0.818182,0.306608
799.855338,0.977273,0.286355
799.888665,1.090909,0.096424
799.921992,0.863636,0.196824
799.955318,1.977273,0.218879
799.988644,5.977273,0.554261
800.021969,24.272727,1.652696
800.055295,106.090909,2.992415
800.088620,280.318182,7.168464
800.121945,411.818182,11.349764
800.155269,336.696970,0.955807
800.188593,103.212121,3.359385
800.221917,22.045455,1.756482
800.255241,2.636364,0.417836
800.288564,1.409091,0.260126
800.321887,0.704545,0.201685
800.355210,0.522727,0.218879
800.388532,1.000000,0.242661
800.421854,0.409091,0.330133
800.455176,0.522727,0.098412
800.488498,0.840909,0.286355
800.521819,0.909091,0.154144
800.555140,0.431818,0.243458
800.588461,0.750000,0.378086
800.621781,0.500000,0.183233
800.655101,0.159091,0.067228
800.688421,-0.090909,0.055670
800.721740,0.590909,0.130558
800.755060,0.522727,0.049533
800.788379,0.636364,0.274615
800.821697,0.818182,0.251031
800.855015,0.522727,0.300439
800.888334,0.454545,0.064282
800.921651,0.568182,0.161907
800.954969,0.750000,0.368399
800.988286,0.704545,0.193849
801.021603,0.886364,0.302153
801.054919,1.636364,0.637175
801.088235,1.068182,0.280891
801.121551,0.363636,0.096424
801.154867,1.159091,0.372582
801.188183,0.750000,0.152035
801.221498,0.568182,0.148599
801.254812,0.750000,0.257882
801.288127,0.636364,0.306608
801.321441,0.659091,0.133975
801.354755,0.795455,0.193849
801.388069,0.727273,0.319801
801.421382,0.431818,0.286355
801.454695,1.045455,0.171587
801.488008,0.340909,0.141476
801.521320,0.909091,0.400155
801.554632,1.500000,0.549699
801.587944,0.886364,0.093015
801.621256,0.590909,0.093707
801.654567,0.727273,0.106600
801.687878,0.500000,0.099066
801.721189,1.136364,0.568182
801.754499,1.227273,0.099066
801.787809,0.977273,0.201685
801.821119,0.750000,0.218879
801.854428,1.613636,0.232608
801.887737,3.250000,0.340720
801.921046,13.568182,0.567158
801.954355,54.727273,0.344676
801.987663,204.000000,3.728520
802.020971,431.136364,7.999064
802.054279,495.204545,7.704068
802.087586,252.909091,6.055102
802.120894,55.500000,2.474978
802.154200,8.613636,0.541057
802.187507,4.181818,0.790569
802.220813,1.931818,0.790161
802.254119,1.954545,0.290162
802.287425,1.295455,0.525561
802.320730,1.045455,0.216804
802.354035,0.295455,0.121861
802.387340,0.681818,0.130558
802.420644,1.022727,0.180034
802.453949,1.522727,0.328368
802.487252,0.545455,0.208299
802.520556,0.772727,0.380979
802.553859,0.568182,0.081153
802.587162,0.727273,0.167011
802.620465,0.704545,0.148599
802.653767,0.613636,0.286355
802.687069,0.909091,0.299793
802.720371,0.977273,0.337674
802.753673,1.068182,0.275319
802.786974,0.386364,0.133975
802.820275,1.159091,0.317166
802.853576,0.545455,0.150756
802.886876,0.522727,0.130063
802.920176,1.113636,0.317166
802.953476,2.181818,0.579434
802.986775,2.250000,0.467293
803.020074,1.704545,0.277189
803.053373,0.795455,0.148599
803.086672,1.204545,0.081153
803.119970,0.477273,0.209227
803.153268,0.863636,0.204545
803.186565,1.136364,0.162305
803.219863,0.613636,0.180034
803.253160,1.431818,0.394140
803.286457,0.727273,0.233992
803.319753,1.159091,0.494155
803.353049,1.136364,0.288377
803.386345,0.931818,0.487843
803.419641,0.704545,0.133975
803.452936,1.181818,0.464660
803.486231,1.750000,0.577089
803.519525,1.363636,0.378939
803.552820,1.590909,0.652791
803.586114,1.659091,0.329937
803.619408,1.431818,0.303858
803.652701,1.068182,0.188445
803.685994,1.318182,0.122390
803.719287,1.681818,0.258132
803.752580,1.204545,0.182880
803.785872,2.704545,0.261857
803.819164,5.090909,0.689352
803.852456,18.886364,1.181545
803.885747,83.840909,3.417924
803.919038,285.242424,6.793313
803.952329,579.090909,8.498177
803.985620,682.022727,13.763475
804.018910,276.772727,4.685182
804.052200,57.818182,3.240849
804.085489,7.212121,0.716780
804.118779,3.772727,0.494286
804.152068,2.704545,0.362747
804.185357,1.704545,0.188445
804.218645,1.704545,0.348217
804.251933,1.795455,0.343738
804.285221,1.045455,0.177506
804.318508,1.022727,0.126029
804.351796,1.454545,0.316554
804.385083,1.386364,0.500387
804.418369,0.704545,0.209227
804.451656,0.840909,0.098412
804.484942,0.772727,0.199431
804.518227,0.477273,0.103528
804.551513,0.886364,0.121861
804.584798,0.704545,0.168166
804.618083,1.022727,0.206743
804.651367,1.136364,0.407193
804.684652,1.363636,0.238366
804.717936,0.613636,0.257882
804.751219,1.477273,0.343738
804.784503,0.931818,0.257882
804.817786,1.227273,0.252058
804.851068,0.840909,0.185683
804.884351,2.090909,0.373447
804.917633,2.136364,0.478354
804.950915,1.704545,0.577984
804.984196,2.090909,0.231774
805.017478,1.363636,0.278351
805.050759,0.977273,0.180034
805.084039,1.318182,0.407193
805.117320,1.227273,0.331694
805.150600,1.272727,0.184637
805.183879,1.113636,0.269632
805.217159,0.886364,0.152035
805.250438,1.454545,0.330914
805.283717,1.409091,0.282952
805.316995,1.886364,0.177142
805.350274,1.522727,0.328368
805.383552,1.909091,0.303220
805.416829,1.863636,0.618666
805.450107,1.659091,0.267710
805.483384,1.545455,0.071870
805.516660,1.681818,0.237280
805.549937,1.772727,0.441284
805.583213,2.318182,0.547817
805.616489,2.159091,0.334601
805.649764,2.681818,0.219174
805.683040,2.477273,0.280891
805.716315,3.295455,0.245570
805.749589,7.272727,0.554843
805.782864,30.431818,1.293809
805.816138,127.636364,2.228896
805.849411,490.818182,11.846513
805.882685,1036.022727,14.216173
805.915958,1291.795455,23.082706
805.949231,650.386364,15.673330
805.982504,117.939394,1.128305
806.015776,16.522727,0.472787
806.049048,3.863636,0.447098
806.082319,0.727273,0.115887
806.115591,0.977273,0.152035
806.148862,1.840909,0.446954
806.182133,0.886364,0.277189
806.215403,1.750000,0.320406
806.248673,1.818182,0.402728
806.281943,1.045455,0.134456
806.315213,0.545455,0.071870
806.348482,1.704545,0.407034
806.381751,2.113636,0.453835
806.415019,0.750000,0.280891
806.448288,1.431818,0.148599
806.481556,1.363636,0.178955
806.514823,1.590909,0.258132
806.548091,2.090909,0.376203
806.581358,1.886364,0.323614
806.614625,1.681818,0.273673
806.647891,1.613636,0.247665
806.681158,1.181818,0.163889
806.714424,1.363636,0.115887
806.747689,1.863636,0.199431
806.780955,1.500000,0.254099
806.814220,1.772727,0.207055
806.847484,2.409091,0.237280
806.880749,2.840909,0.415822
806.914013,2.954545,0.561782
806.947277,1.500000,0.346917
806.980540,1.568182,0.237007
807.013803,1.795455,0.180034
807.047066,1.863636,0.258132
807.080329,1.863636,0.145526
807.113591,2.886364,0.755404
807.146853,2.022727,0.137777
807.180115,2.636364,0.441869
807.213376,2.340909,0.230377
807.246637,2.886364,0.428064
807.279898,1.818182,0.184637
807.313159,2.431818,0.421987
807.346419,2.772727,0.159091
807.379679,2.227273,0.174571
807.412938,3.181818,0.405285
807.446198,3.181818,0.263087
807.479457,3.250000,0.303858
807.512715,3.204545,0.067228
807.545974,3.659091,0.336141
807.579232,4.886364,0.638288
807.612490,4.590909,0.226134
807.645747,6.454545,0.650016
807.679004,8.795455,0.365584
807.712261,21.022727,0.929529
807.745518,99.090909,1.848330
807.778774,466.659091,10.964932
807.812030,1327.931818,10.847191
807.845285,1840.068182,26.101150
807.878541,1425.022727,29.032779
807.911796,383.181818,11.163742
807.945051,45.393939,2.148980
807.978305,5.696970,0.214007
808.011559,1.818182,0.474559
808.044813,1.704545,0.253844
808.078066,1.977273,0.378086
808.111320,1.295455,0.180034
808.144573,1.318182,0.104149
808.177825,1.840909,0.161907
808.211078,1.363636,0.274615
808.244330,2.045455,0.457378
808.277581,1.363636,0.085038
808.310833,1.931818,0.280891
808.344084,2.090909,0.611528
808.377335,1.840909,0.211681
808.410585,1.204545,0.211681
808.443835,0.886364,0.171210
808.477085,1.840909,0.345238
808.510335,0.954545,0.298931
808.543584,1.727273,0.377574
808.576833,1.227273,0.130558
808.610082,1.681818,0.235093
808.643330,0.568182,0.196496
808.676578,1.454545,0.344676
808.709826,1.840909,0.336141
808.743073,2.068182,0.395448
808.776320,2.318182,0.273673
808.809567,2.977273,0.201685
808.842814,3.431818,0.379450
808.876060,2.363636,0.229534
808.909306,1.431818,0.126029
808.942552,2.545455,0.338629
808.975797,2.363636,0.446520
809.009042,1.863636,0.122390
809.042287,1.863636,0.312448
809.075531,1.863636,0.174571
809.108775,1.840909,0.361321
809.142019,2.772727,0.340909
809.175262,2.272727,0.402728
809.208506,3.136364,0.465216
809.241748,2.818182,0.402728
809.274991,3.681818,0.312448
809.308233,2.795455,0.358450
809.341475,3.363636,0.564991
809.374717,3.068182,0.237007
809.407958,4.568182,0.532396
809.441199,3.613636,0.445796
809.474440,4.727273,0.401444
809.507680,5.522727,0.741602
809.540921,5.227273,0.305764
809.574160,6.659091,0.468397
809.607400,7.681818,0.295455
809.640639,12.022727,0.914967
809.673878,26.000000,1.028017
809.707117,131.340909,8.687788
809.740355,556.136364,10.001265
809.773593,1502.750000,13.321415
809.806831,1894.659091,11.812078
809.840068,1238.090909,19.632654
809.873305,249.545455,4.189839
809.906542,35.340909,2.122142
809.939778,9.750000,1.047121
809.973015,8.340909,0.770300
810.006250,7.113636,0.261857
810.039486,5.159091,0.611000
810.072721,4.272727,0.669587
810.105956,5.181818,1.221366
810.139191,3.204545,0.434055
810.172425,3.181818,0.668815
810.205659,2.750000,0.537225
810.238893,1.113636,0.141476
810.272126,2.068182,0.501418
810.305359,2.000000,0.830090
810.338592,1.000000,0.321412
810.371825,1.545455,0.402728
810.405057,1.954545,0.204545
810.438289,1.750000,0.445796
810.471520,1.931818,0.612689
810.504751,1.590909,0.288377
810.537982,1.545455,0.482118
810.571213,0.931818,0.223549
810.604443,1.522727,0.361321
810.637673,1.022727,0.196496
810.670903,1.568182,0.376718
810.704133,2.636364,0.557629
810.737362,2.477273,0.614372
810.770591,2.522727,0.211681
810.803819,1.954545,0.209535
810.837047,2.204545,0.476054
810.870275,1.318182,0.364346
810.903503,1.136364,0.254099
810.936730,1.590909,0.174571
810.969957,1.363636,0.190150
811.003184,1.181818,0.266985
811.036410,2.136364,0.685219
811.069636,2.431818,0.322014
811.102862,2.159091,0.267710
811.136087,1.181818,0.233992
811.169312,2.568182,0.289940
811.202537,1.795455,0.421987
811.235762,2.613636,0.567158
811.268986,2.045455,0.177506
811.302210,1.704545,0.261857
811.335433,2.159091,0.317166
811.368656,3.090909,0.294579
811.401879,3.954545,0.152459
811.435102,2.909091,0.430020
811.468324,3.113636,0.613531
811.501546,4.727273,0.791875
811.534768,3.181818,0.195507
811.567990,4.227273,0.714736
811.601211,7.477273,1.112650
811.634432,19.977273,0.532396
811.667652,103.022727,3.128676
811.700872,395.795455,10.375012
811.734092,1086.522727,2.088530
811.767312,1512.090909,5.842014
811.800531,1057.045455,19.132166
811.833750,188.727273,4.898979
811.866969,21.431818,1.730671
811.900187,6.090909,0.566817
811.933405,2.818182,0.568636
811.966623,1.886364,0.357006
811.999840,2.977273,0.355557
812.033057,2.272727,0.800955
812.066274,1.295455,0.312242
812.099490,1.727273,0.520251
812.132707,1.295455,0.245570
812.165923,1.977273,0.289940
812.199138,1.522727,0.355557
812.232353,1.522727,0.185683
812.265568,1.727273,0.659483
812.298783,0.886364,0.398052
812.331997,1.022727,0.245570
812.365211,1.204545,0.326791
812.398425,0.931818,0.257882
812.431638,0.340909,0.113067
812.464851,0.840909,0.133975
812.498064,0.136364,0.093707
812.531277,0.545455,0.341666
812.564489,0.477273,0.098412
812.597701,1.386364,0.608459
812.630912,0.954545,0.354283
812.664123,1.500000,0.640812
