#{
#    "background_file": "Backgrounds\\\\bg_785.995nm_13bin_219st_244en_10.0s_110g_4x_13_seq.txt",
#    "ccd_image_settings": [
#        1,
#        13,
#        1,
#        1600,
#        219,
#        244
#    ],
#    "ccd_temperature": "-87",
#    "cdRatios": {
#        "mean": 0.9424713539660537,
#        "std": 0.008941003821555549
#    },
#    "center_lambda": 786.0,
#    "comments": "",
#    "dark_region": 47.05015970784671,
#    "date": "10/22/20 18:06:21PM",
#    "eff_field": 1.5,
#    "exposure": 10.0,
#    "fel_lambda": "15.0",
#    "fel_pol": "H",
#    "fel_pulses": 43,
#    "fel_pyro_cal": "0.012",
#    "fel_reprate": "1.07",
#    "fel_transmission": "1.0",
#    "fel_transmission_fits": {
#        "A": 1.0,
#        "C": 0.0,
#        "Mu": 0.0
#    },
#    "fieldInt": {
#        "mean": 5095.2693068181825,
#        "std": 194.38897990507746
#    },
#    "fieldStrength": {
#        "mean": 32.74257954545455,
#        "std": 0.6453277495463796
#    },
#    "fpTime": {
#        "mean": 1.1142445777564867,
#        "std": 0.06636615916037013
#    },
#    "gain": 110,
#    "grating": 3,
#    "images_in_sequence": [
#        "hsg_820nm_c123_a00_HAna585.txt",
#        "hsg_820nm_c123_a00_HAna586.txt",
#        "hsg_820nm_c123_a00_HAna587.txt",
#        "hsg_820nm_c123_a00_HAna588.txt"
#    ],
#    "nir_lambda": "819.98",
#    "nir_pola": "00",
#    "nir_polg": "0",
#    "nir_power": "100.0",
#    "pulseEnergies": {
#        "mean": 1.561755681818182,
#        "std": 0.06317154076727093
#    },
#    "pyroVoltage": {
#        "mean": 0.13814810667338634,
#        "std": 0.006181002879231673
#    },
#    "rotatorAngle": 315.0,
#    "sample_Temp": "55",
#    "sample_name": "L001218.C1",
#    "series": "820_Fan",
#    "slits": "60",
#    "spec_step": "",
#    "window_trans": 0.92,
#    "y_max": 2,
#    "y_min": 1
#}
#
#
#
#
#
#
#
#
#
#
#
#
#
#
#
#
#
#
#
#
#
#
#
#
#
#
Wavelength,Signal,error
nm,arb. u.,arb.u.
Wavelength,820_Fan,error
759.194366,0.043182,0.052359
759.228015,0.477273,0.251801
759.261663,0.481818,0.256607
759.295311,0.062121,0.121692
759.328959,0.070455,0.038081
759.362607,0.118182,0.039886
759.396254,-0.188636,0.074230
759.429901,-0.068182,0.037689
759.463548,0.209091,0.037206
759.497194,0.356818,0.251306
759.530841,0.050000,0.077506
759.564487,0.161364,0.058421
759.598133,0.043182,0.069337
759.631779,0.175000,0.319047
759.665424,0.111364,0.104663
759.699069,0.329545,0.236939
759.732714,0.297727,0.102418
759.766359,0.086364,0.088695
759.800003,0.277273,0.150120
759.833648,0.186364,0.064403
759.867292,0.124242,0.098228
759.900935,0.229545,0.151963
759.934579,0.184091,0.084451
759.968222,-0.143182,0.045270
760.001865,-0.043182,0.076424
760.035508,0.186364,0.085129
760.069151,0.031061,0.066910
760.102793,0.370455,0.159848
760.136435,0.229545,0.145006
760.170077,0.045455,0.122390
760.203718,0.020455,0.155823
760.237360,-0.584091,0.091384
760.271001,-0.068182,0.098412
760.304642,0.247727,0.219771
760.338283,-0.163636,0.050206
760.371923,-0.043182,0.052359
760.405563,0.434848,0.165191
760.439203,0.384091,0.415236
760.472843,0.440909,0.065358
760.506482,0.488636,0.273378
760.540122,0.186364,0.032381
760.573761,0.390909,0.078335
760.607399,0.022727,0.037689
760.641038,0.415909,0.164152
760.674676,0.209091,0.049167
760.708314,0.252273,0.047714
760.741952,0.025000,0.113426
760.775589,0.093182,0.085060
760.809227,0.131818,0.116841
760.842864,0.325000,0.148629
760.876501,-0.310606,0.037689
760.910137,0.506818,0.250586
760.943774,0.347727,0.034970
760.977410,0.161364,0.201502
761.011046,0.640909,0.553926
761.044681,0.043182,0.069337
761.078317,0.109091,0.101843
761.111952,0.156818,0.149565
761.145587,-0.124242,0.037206
761.179221,-0.065909,0.068588
761.212856,-0.606818,0.085242
761.246490,0.540909,0.158815
761.280124,0.031061,0.037119
761.313758,0.497727,0.460365
761.347391,0.611364,0.154324
761.381024,0.040909,0.173131
761.414657,0.310606,0.133975
761.448290,0.031061,0.049101
761.481923,0.343182,0.116348
761.515555,-0.047727,0.040064
761.549187,-0.013636,0.202604
761.582819,-0.027273,0.139138
761.616450,-0.302273,0.037119
761.650082,0.247727,0.295898
761.683713,0.093182,0.055705
761.717344,-0.070455,0.081335
761.750974,-0.252273,0.047714
761.784605,-0.186364,0.085129
761.818235,0.131818,0.107637
761.851865,0.068182,0.067228
761.885494,-0.302273,0.129899
761.919124,0.070455,0.038081
761.952753,-0.093182,0.032201
761.986382,0.559091,0.056909
762.020010,0.155303,0.037258
762.053639,-0.248485,0.098333
762.087267,0.155303,0.049206
762.120895,0.095455,0.057631
762.154523,-0.138636,0.050347
762.188150,-0.093182,0.032201
762.221777,0.295455,0.255871
762.255404,0.136364,0.050820
762.289031,-0.022727,0.081153
762.322658,-0.045455,0.075378
762.356284,0.261364,0.174849
762.389910,-0.286364,0.172892
762.423536,0.154545,0.116509
762.457161,-0.062121,0.080898
762.490786,0.124242,0.080930
762.524411,0.155303,0.049206
762.558036,0.002273,0.046619
762.591661,0.275000,0.131754
762.625285,-0.465909,0.096925
762.658909,0.047727,0.075745
762.692533,0.136364,0.104149
762.726157,0.027273,0.069976
762.759780,-0.217424,0.019117
762.793403,0.252273,0.047714
762.827026,0.047727,0.023918
762.860649,0.093182,0.032201
762.894271,-0.186364,0.096504
762.927893,0.065909,0.094003
762.961515,0.231818,0.145224
762.995137,0.045455,0.068182
763.028758,0.475000,0.274622
763.062379,-0.000000,0.170075
763.096000,-0.047727,0.040064
763.129621,0.234091,0.094714
763.163241,0.254545,0.097701
763.196862,0.231818,0.049948
763.230481,0.254545,0.035791
763.264101,0.062121,0.018603
763.297721,0.184091,0.215379
763.331340,0.134091,0.123456
763.364959,1.229545,0.366965
763.398578,-0.493182,0.062521
763.432196,0.438636,0.197828
763.465814,-0.006818,0.163680
763.499432,0.645455,0.342964
763.533050,0.496970,0.162114
763.566668,0.652273,0.251409
763.600285,-0.043182,0.152979
763.633902,0.259091,0.044710
763.667519,0.322727,0.073399
763.701135,0.093182,0.001968
763.734752,0.586364,0.187455
763.768368,0.297727,0.079732
763.801984,0.015909,0.182905
763.835599,0.310606,0.130063
763.869215,0.363636,0.184637
763.902830,0.052273,0.103071
763.936444,0.436364,0.205402
763.970059,0.154545,0.164329
764.003673,0.295455,0.180034
764.037288,0.090909,0.055670
764.070901,-0.213636,0.125041
764.104515,0.070455,0.049832
764.138128,0.062121,0.018603
764.171742,0.175000,0.228483
764.205354,0.131818,0.140891
764.238967,0.409091,0.165457
764.272580,0.124242,0.103353
764.306192,0.331818,0.125041
764.339804,0.229545,0.121771
764.373415,-0.072727,0.052223
764.407027,0.070455,0.098563
764.440638,0.200000,0.154946
764.474249,0.155303,0.049206
764.507860,-0.375000,0.040576
764.541470,0.184091,0.044347
764.575080,-0.031061,0.018568
764.608690,-0.068182,0.037689
764.642300,-0.350000,0.051174
764.675909,0.018182,0.131897
764.709519,0.300000,0.125062
764.743128,-0.022727,0.049533
764.776736,0.165909,0.119329
764.810345,0.020455,0.039414
764.843953,-0.188636,0.037119
764.877561,0.111364,0.068963
764.911169,0.340909,0.171210
764.944776,0.231818,0.081407
764.978384,0.143182,0.096337
765.011991,0.022727,0.037689
765.045598,0.225000,0.153653
765.079204,0.186364,0.096504
765.112810,0.140909,0.051975
765.146416,0.227273,0.118094
765.180022,0.248485,0.019285
765.213628,-0.256818,0.098981
765.247233,0.045455,0.075378
765.280838,0.652273,0.086147
765.314443,0.238636,0.127936
765.348048,-0.022727,0.037689
765.381652,0.315909,0.255019
765.415256,0.031061,0.049101
765.448860,0.025000,0.038753
765.482463,-0.310606,0.049533
765.516067,0.250000,0.148599
765.549670,0.124242,0.049167
765.583273,0.277273,0.083906
765.616875,0.111364,0.152810
765.650478,-0.238636,0.105841
765.684080,0.124242,0.049167
765.717682,0.452273,0.197096
765.751283,-0.140909,0.025206
765.784885,0.095455,0.073399
765.818486,0.159091,0.141476
765.852087,0.188636,0.037119
765.885687,0.124242,0.037206
765.919288,0.134091,0.100380
765.952888,0.063636,0.084672
765.986488,0.393182,0.106764
766.020087,0.381818,0.293947
766.053687,0.268182,0.236222
766.087286,0.159091,0.201685
766.120885,0.181818,0.085038
766.154484,-0.054545,0.150619
766.188082,0.120455,0.213040
766.221680,0.025000,0.098824
766.255278,-0.095455,0.057631
766.288876,0.156818,0.142490
766.322473,-0.186364,0.032381
766.356070,-0.047727,0.051363
766.389667,-0.113636,0.059047
766.423264,-0.115909,0.133893
766.456860,0.372727,0.056224
766.490457,0.256818,0.068059
766.524053,0.261364,0.109440
766.557648,0.124242,0.049167
766.591244,0.115909,0.074369
766.624839,-0.161364,0.036699
766.658434,0.000000,0.055670
766.692029,0.140909,0.051975
766.725623,-0.093182,0.032201
766.759217,0.136364,0.068182
766.792811,-0.281818,0.038836
766.826405,-0.341667,0.067295
766.859999,0.256818,0.113562
766.893592,0.213636,0.133047
766.927185,0.322727,0.121181
766.960777,-0.418182,0.081057
766.994370,0.184091,0.030555
767.027962,0.300000,0.238669
767.061554,0.113636,0.133975
767.095146,0.072727,0.088840
767.128737,-0.231818,0.020706
767.162329,-0.093182,0.032201
767.195920,-0.072727,0.041161
767.229510,0.343182,0.072612
767.263101,0.540909,0.504745
767.296691,0.209091,0.158571
767.330281,-0.254545,0.015746
767.363871,-0.261364,0.094222
767.397460,0.070455,0.098563
767.431050,0.277273,0.166438
767.464639,0.272727,0.187414
767.498227,0.579545,0.262780
767.531816,0.440909,0.170485
767.565404,-0.111364,0.126963
767.598992,0.365909,0.207563
767.632580,0.025000,0.038753
767.666168,0.227273,0.104149
767.699755,-0.075000,0.107005
767.733342,-0.025000,0.059732
767.766929,-0.025000,0.038753
767.800515,0.204545,0.113067
767.834101,0.093182,0.032201
767.867687,-0.047727,0.152641
767.901273,0.202273,0.156484
767.934859,-0.372727,0.085401
767.968444,0.043182,0.135046
768.002029,0.093182,0.032201
768.035614,0.093182,0.085060
768.069198,0.093182,0.032201
768.102783,-0.434848,0.196601
768.136367,0.047727,0.051363
768.169950,0.043182,0.199829
768.203534,-0.022727,0.049533
768.237117,0.390909,0.157262
768.270700,0.161364,0.112741
768.304283,0.436364,0.268605
768.337866,-0.100000,0.092375
768.371448,0.111364,0.068963
768.405030,0.204545,0.188445
768.438612,0.088636,0.073320
768.472193,0.217424,0.081017
768.505775,0.140909,0.076162
768.539356,0.143182,0.096337
768.572936,0.156818,0.149565
768.606517,-0.072727,0.104841
768.640097,0.062121,0.151899
768.673677,0.336364,0.336394
768.707257,0.320455,0.249491
768.740836,0.124242,0.103353
768.774416,0.302273,0.037119
768.807995,0.093182,0.055705
768.841574,0.365909,0.149737
768.875152,0.186364,0.032381
768.908730,-0.140909,0.025206
768.942308,-0.186364,0.032381
768.975886,-0.031061,0.037119
769.009464,0.277273,0.043301
769.043041,0.318182,0.199431
769.076618,0.256818,0.022355
769.110195,0.184091,0.078096
769.143771,0.072727,0.041161
769.177348,-0.020455,0.039414
769.210924,-0.095455,0.216124
769.244499,0.072727,0.076331
769.278075,0.120455,0.055052
769.311650,0.370455,0.135351
769.345225,0.188636,0.074230
769.378800,-0.031061,0.049101
769.412375,0.413636,0.120326
769.445949,-0.140909,0.040846
769.479523,0.068182,0.067228
769.513097,0.156818,0.109722
769.546670,0.931818,0.728958
769.580243,0.068182,0.098412
769.613816,0.188636,0.058685
769.647389,-0.143182,0.120192
769.680962,0.363636,0.321412
769.714534,0.252273,0.121133
769.748106,0.115909,0.049311
769.781678,0.227273,0.171587
769.815249,0.025000,0.038753
769.848820,-0.310606,0.049533
769.882391,-0.027273,0.069976
769.915962,0.043182,0.041333
769.949533,0.000000,0.064282
769.983103,0.436364,0.224621
770.016673,-0.047727,0.023918
770.050243,0.211364,0.171989
770.083812,-0.254545,0.015746
770.117381,0.134091,0.100380
770.150950,0.184091,0.195253
770.184519,0.043182,0.094551
770.218088,-0.043182,0.052359
770.251656,-0.093182,0.032201
770.285224,0.495455,0.205339
770.318791,0.368182,0.171933
770.352359,0.050000,0.053926
770.385926,0.181818,0.096424
770.419493,0.090909,0.078730
770.453060,-0.368182,0.069048
770.486626,0.068182,0.037689
770.520192,0.093182,0.170087
770.553758,0.386364,0.199107
770.587324,0.468182,0.062117
770.620890,0.186364,0.032381
770.654455,0.365909,0.186596
770.688020,0.640909,0.291078
770.721584,-0.111364,0.088629
770.755149,-0.095455,0.047835
770.788713,-0.002273,0.033767
770.822277,0.140909,0.076162
770.855841,-0.372727,0.033091
770.889404,0.027273,0.083443
770.922967,0.031061,0.103322
770.956530,0.209091,0.018741
770.990093,0.434091,0.195517
771.023655,0.027273,0.062158
771.057217,0.163636,0.067726
771.090779,0.143182,0.124415
771.124341,-0.022727,0.193849
771.157902,0.063636,0.090568
771.191463,0.248485,0.019285
771.225024,0.217424,0.037397
771.258585,-0.095455,0.086334
771.292145,0.118182,0.039886
771.325705,0.231818,0.122031
771.359265,0.190909,0.110689
771.392825,0.204545,0.067228
771.426384,0.031061,0.049101
771.459943,0.120455,0.055052
771.493502,-0.050000,0.070528
771.527061,0.131818,0.107637
771.560619,-0.070455,0.158778
771.594177,0.209091,0.049167
771.627735,0.247727,0.172349
771.661293,0.238636,0.105841
771.694850,-0.325000,0.067295
771.728407,0.302273,0.129899
771.761964,0.252273,0.047714
771.795521,0.120455,0.055052
771.829077,0.352273,0.170360
771.862633,0.072727,0.061322
771.896189,-0.004545,0.117722
771.929744,-0.062121,0.074239
771.963300,0.155303,0.037258
771.996855,0.231818,0.130222
772.030409,0.018182,0.089995
772.063964,0.159091,0.049533
772.097518,-0.031061,0.092786
772.131072,-0.263636,0.117919
772.164626,0.095455,0.086334
772.198180,0.002273,0.046619
772.231733,-0.020455,0.081968
772.265286,-0.022727,0.130063
772.298839,0.325000,0.148629
772.332391,0.159091,0.113067
772.365943,0.693182,0.214032
772.399495,0.438636,0.044114
772.433047,-0.062121,0.133821
772.466598,0.290909,0.199276
772.500150,-0.031061,0.092786
772.533701,0.254545,0.179646
772.567251,-0.155303,0.037258
772.600802,0.045455,0.104149
772.634352,0.186364,0.055809
772.667902,0.086364,0.104718
772.701452,0.225000,0.278080
772.735001,0.004545,0.087522
772.768550,0.088636,0.057530
772.802099,-0.302273,0.018568
772.835648,0.050000,0.077506
772.869196,0.031061,0.049101
772.902744,-0.045455,0.022727
772.936292,0.156818,0.142490
772.969840,0.277273,0.043301
773.003387,0.363636,0.140100
773.036934,0.062121,0.049114
773.070481,0.068182,0.019682
773.104028,0.050000,0.053926
773.137574,0.084091,0.137246
773.171120,-0.070455,0.020423
773.204666,0.063636,0.090568
773.238212,0.086364,0.118596
773.271757,0.375000,0.118504
773.305302,0.502273,0.259238
773.338847,0.368182,0.114158
773.372391,0.095455,0.086334
773.405936,0.179545,0.320291
773.439480,0.409091,0.183233
773.473024,0.093182,0.001968
773.506567,0.204545,0.103528
773.540110,0.138636,0.050347
773.573653,0.222727,0.191274
773.607196,0.138636,0.038753
773.640739,0.138636,0.103920
773.674281,-0.186364,0.085129
773.707823,0.093182,0.032201
773.741365,0.217424,0.074369
773.774906,0.186364,0.085129
773.808447,-0.045455,0.039365
773.841988,0.155303,0.066988
773.875529,0.040909,0.106673
773.909070,-0.004545,0.214204
773.942610,-0.217424,0.019117
773.976150,-0.068182,0.037689
774.009689,0.022727,0.049533
774.043229,-0.095455,0.086334
774.076768,0.341667,0.130098
774.110307,-0.127273,0.182838
774.143845,0.027273,0.069976
774.177384,0.372727,0.128806
774.210922,0.584091,0.198350
774.244460,0.929545,0.237070
774.277997,0.252273,0.047714
774.311535,0.779545,0.457811
774.345072,0.386364,0.171210
774.378609,-0.190909,0.115261
774.412145,0.045455,0.104149
774.445682,0.088636,0.133313
774.479218,0.211364,0.088804
774.512754,0.525000,0.322861
774.546289,0.018182,0.181363
774.579824,-0.170455,0.140446
774.613359,-0.143182,0.071753
774.646894,0.184091,0.078096
774.680429,0.111364,0.159427
774.713963,0.459091,0.158815
774.747497,0.365909,0.319322
774.781031,0.277273,0.135661
774.814564,0.179545,0.086863
774.848097,-0.118182,0.099274
774.881630,0.093182,0.032201
774.915163,0.363636,0.251031
774.948696,0.040909,0.101716
774.982228,0.393182,0.072112
775.015760,-0.186364,0.055809
775.049291,0.204545,0.141476
775.082823,0.159091,0.067228
775.116354,0.513636,0.136117
775.149885,-0.027273,0.062158
775.183416,-0.143182,0.045270
775.216946,0.425000,0.664736
775.250476,0.088636,0.125325
775.284006,0.554545,0.355389
775.317535,0.152273,0.324346
775.351065,-0.143182,0.071753
775.384594,-0.236364,0.097277
775.418123,0.186364,0.096504
775.451651,-0.062121,0.098202
775.485180,-0.327273,0.042640
775.518708,-0.186364,0.055809
775.552235,0.050000,0.077506
775.585763,0.002273,0.085666
775.619290,0.325000,0.113107
775.652817,0.209091,0.066959
775.686344,0.093182,0.085060
775.719870,0.186364,0.032381
775.753397,0.070455,0.067449
775.786923,0.345455,0.200825
775.820448,-0.025000,0.067831
775.853974,0.359091,0.240984
775.887499,0.093182,0.032201
775.921024,0.622727,0.129904
775.954549,0.745455,0.418132
775.988073,0.621212,0.165457
776.021597,0.434848,0.113249
776.055121,0.345455,0.111526
776.088645,0.606818,0.167115
776.122168,-0.118182,0.168673
776.155691,0.134091,0.100380
776.189214,-0.020455,0.088044
776.222737,0.300000,0.179358
776.256259,-0.279545,0.055982
776.289781,0.302273,0.196387
776.323303,0.190909,0.119659
776.356824,0.190909,0.070857
776.390346,0.045455,0.039365
776.423867,0.377273,0.199003
776.457387,-0.347727,0.034970
776.490908,0.093182,0.032201
776.524428,0.217424,0.165000
776.557948,0.025000,0.130375
776.591468,0.129545,0.166651
776.624987,0.047727,0.040064
776.658506,0.093182,0.170087
776.692025,-0.193182,0.094222
776.725544,-0.140909,0.051975
776.759062,-0.031061,0.066910
776.792581,-0.115909,0.037397
776.826099,0.338636,0.163427
776.859616,0.277273,0.100695
776.893134,0.277273,0.053926
776.926651,0.338636,0.192455
776.960167,-0.025000,0.067831
776.993684,0.068182,0.037689
777.027200,0.248485,0.148547
777.060716,0.062121,0.066920
777.094232,0.118182,0.060473
777.127748,0.022727,0.049533
777.161263,0.027273,0.062158
777.194778,0.050000,0.070528
777.228293,0.493182,0.077298
777.261807,0.097727,0.094441
777.295322,-0.020455,0.075404
777.328836,-0.252273,0.047714
777.362349,-0.025000,0.098824
777.395863,0.118182,0.060473
777.429376,-0.068182,0.067228
777.462889,0.115909,0.049311
777.496401,0.018182,0.084060
777.529914,0.047727,0.104416
777.563426,0.020455,0.126555
777.596938,0.590152,0.081842
777.630449,0.227273,0.093707
777.663961,0.318182,0.199431
777.697472,0.372727,0.085401
777.730983,0.341667,0.067295
777.764493,1.152273,0.153586
777.798004,2.438636,0.661737
777.831514,0.486364,0.244643
777.865023,1.070455,0.308963
777.898533,0.256818,0.177458
777.932042,0.611364,0.299886
777.965551,0.506818,0.070299
777.999060,-0.070455,0.130177
778.032568,0.279545,0.111497
778.066076,0.000000,0.085038
778.099584,0.031061,0.018568
778.133092,0.186364,0.160754
778.166599,0.336364,0.243808
778.200107,-0.050000,0.043301
778.233613,0.400000,0.068635
778.267120,0.136364,0.145526
778.300626,0.600000,0.168734
778.334132,-0.186364,0.032381
778.367638,-0.062121,0.080898
778.401144,-0.052273,0.133623
778.434649,0.272727,0.150756
778.468154,0.488636,0.243391
778.501659,0.124242,0.018741
778.535163,0.229545,0.117453
778.568668,0.217424,0.049311
778.602172,-0.090909,0.096424
778.635675,0.322727,0.503310
778.669179,0.217424,0.037397
778.702682,0.156818,0.099864
778.736185,0.256818,0.039151
778.769688,0.302273,0.112878
778.803190,0.045455,0.093707
778.836692,0.118182,0.039886
778.870194,0.068182,0.067228
778.903696,0.361364,0.245841
778.937197,0.322727,0.065987
778.970698,0.418182,0.130003
779.004199,0.229545,0.117453
779.037699,-0.062121,0.018603
779.071200,0.181818,0.111340
779.104700,0.429545,0.303141
779.138199,0.186364,0.064403
779.171699,0.095455,0.086334
779.205198,0.297727,0.125119
779.238697,0.090909,0.106600
779.272196,0.225000,0.131950
779.305694,-0.170455,0.120663
779.339192,0.020455,0.050858
779.372690,0.090909,0.115887
779.406188,0.186364,0.064403
779.439685,-0.025000,0.117892
779.473182,0.456818,0.204807
779.506679,0.909091,0.242661
779.540176,1.750000,0.329937
779.573672,1.931818,0.379450
779.607168,3.323485,0.774799
779.640664,3.477273,0.523591
779.674160,0.675000,0.196519
779.707655,0.277273,0.178420
779.741150,0.186364,0.140156
779.774644,0.186364,0.032381
779.808139,0.254545,0.035791
779.841633,0.229545,0.103422
779.875127,0.115909,0.049311
779.908621,0.254545,0.086483
779.942114,0.065909,0.159265
779.975607,0.186364,0.085129
780.009100,-0.240909,0.105308
780.042593,0.254545,0.112448
780.076085,-0.050000,0.095427
780.109577,0.000000,0.032141
780.143069,0.140909,0.051975
780.176560,-0.002273,0.046619
780.210052,0.111364,0.114107
780.243543,0.050000,0.123712
780.277033,0.111364,0.082596
780.310524,-0.209091,0.049167
780.344014,0.109091,0.181932
780.377504,-0.155303,0.049206
780.410994,-0.168182,0.108211
780.444483,0.068182,0.059047
780.477972,0.322727,0.092123
780.511461,0.095455,0.035428
780.544950,0.338636,0.252782
780.578438,0.093182,0.032201
780.611926,0.070455,0.020423
780.645414,0.327273,0.100412
780.678902,0.065909,0.094003
780.712389,0.065909,0.060591
780.745876,0.163636,0.038569
780.779363,0.062121,0.018603
780.812849,0.031061,0.049101
780.846335,0.045455,0.068182
780.879821,0.047727,0.094003
780.913307,0.088636,0.086266
780.946792,0.886364,0.307239
780.980277,0.206818,0.073671
781.013762,0.031061,0.018568
781.047247,0.434091,0.218001
781.080731,0.217424,0.019117
781.114215,0.093182,0.064313
781.147699,0.211364,0.061269
781.181183,0.045455,0.022727
781.214666,0.156818,0.149565
781.248149,0.155303,0.018844
781.281632,0.020455,0.039414
781.315114,0.488636,0.185596
781.348596,0.900758,0.268305
781.382078,1.521970,0.291643
781.415560,4.184091,0.316397
781.449041,3.168182,0.364112
781.482522,1.087121,0.207911
781.516003,0.615909,0.169478
781.549484,0.390909,0.084672
781.582964,0.256818,0.050654
781.616444,0.138636,0.021651
781.649924,-0.022727,0.049533
781.683404,-0.045455,0.039365
781.716883,-0.211364,0.061269
781.750362,0.186364,0.032381
781.783841,0.113636,0.037689
781.817319,0.413636,0.136420
781.850797,0.338636,0.297812
781.884275,0.118182,0.039886
781.917753,0.163636,0.050206
781.951230,-0.000000,0.085038
781.984707,0.134091,0.123456
782.018184,0.186364,0.064403
782.051661,0.229545,0.133893
782.085137,0.352273,0.136718
782.118613,0.513636,0.115597
782.152089,0.575000,0.155591
782.185564,0.368182,0.061111
782.219040,0.118182,0.039886
782.252515,0.234091,0.041706
782.285989,0.234091,0.135160
782.319464,-0.045455,0.022727
782.352938,0.700000,0.107277
782.386412,0.138636,0.067831
782.419885,-0.217424,0.019117
782.453359,0.227273,0.305764
782.486832,0.370455,0.053142
782.520305,0.206818,0.073671
782.553777,0.002273,0.072612
782.587249,-0.217424,0.067065
782.620721,-0.397727,0.131911
782.654193,0.252273,0.193392
782.687665,0.388636,0.147478
782.721136,0.300000,0.047019
782.754607,0.343182,0.161039
782.788077,0.097727,0.076289
782.821548,0.354545,0.110689
782.855018,-0.138636,0.050347
782.888488,0.070455,0.049832
782.921957,0.279545,0.085242
782.955427,0.247727,0.219771
782.988896,0.113636,0.081153
783.022365,0.000000,0.032141
783.055833,0.040909,0.124545
783.089301,0.338636,0.169631
783.122769,0.561364,0.461519
783.156237,1.025000,0.275467
783.189704,2.388636,0.299886
783.223172,3.975000,0.425861
783.256638,5.777273,0.488943
783.290105,4.068939,0.692704
783.323571,1.179545,0.449177
783.357037,0.577273,0.247998
783.390503,0.143182,0.055519
783.423969,0.065909,0.088337
783.457434,0.186364,0.064403
783.490899,-0.093182,0.085060
783.524364,-0.025000,0.038753
783.557828,0.277273,0.105700
783.591292,0.581818,0.218844
783.624756,0.075000,0.132848
783.658220,0.209091,0.018741
783.691683,-0.006818,0.128298
783.725146,-0.090909,0.032141
783.758609,0.213636,0.085854
783.792072,0.272727,0.101639
783.825534,0.068182,0.087286
783.858996,0.343182,0.167331
783.892458,0.113636,0.049533
783.925919,0.043182,0.094551
783.959381,0.156818,0.123037
783.992842,0.079545,0.222898
784.026302,0.068182,0.037689
784.059763,0.022727,0.049533
784.093223,0.388636,0.116126
784.126683,0.802273,0.153080
784.160142,0.586364,0.187455
784.193601,0.270455,0.148699
784.227060,0.511364,0.098248
784.260519,0.227273,0.081944
784.293978,0.022727,0.037689
784.327436,0.403788,0.113198
784.360894,0.090909,0.032141
784.394352,0.068182,0.087286
784.427809,-0.065909,0.051363
784.461266,0.372727,0.140321
784.494723,0.279545,0.055982
784.528180,-0.050000,0.053926
784.561636,0.031061,0.037119
784.595092,0.275000,0.156814
784.628548,0.454545,0.173086
784.662003,0.386364,0.121861
784.695458,0.045455,0.050820
784.728913,0.062121,0.037137
784.762368,0.211364,0.041082
784.795823,0.225000,0.100893
784.829277,0.138636,0.067831
784.862731,0.062121,0.018603
784.896184,0.188636,0.087041
784.929637,-0.188636,0.133816
784.963091,0.600000,0.118357
784.996543,1.090909,0.338629
785.029996,3.418182,0.695291
785.063448,4.472727,0.482803
785.096900,7.175000,0.696978
785.130352,6.711364,0.154089
785.163803,3.102273,0.514354
785.197254,0.434848,0.259957
785.230705,0.279545,0.116037
785.264156,0.406818,0.332555
785.297606,0.072727,0.041161
785.331056,0.893182,0.271558
785.364506,0.168182,0.092793
785.397955,0.118182,0.039886
785.431405,0.118182,0.039886
785.464854,-0.186364,0.160754
785.498302,0.045455,0.068182
785.531751,0.124242,0.103353
785.565199,0.000000,0.055670
785.598647,-0.036364,0.208200
785.632094,-0.165909,0.042927
785.665542,0.327273,0.083567
785.698989,-0.090909,0.032141
785.732436,0.248485,0.081057
785.765882,-0.062121,0.049114
785.799328,0.347727,0.057350
785.832774,0.252273,0.092059
785.866220,0.350000,0.082165
785.899665,0.217424,0.214056
785.933111,-0.100000,0.092375
785.966555,-0.143182,0.055519
786.000000,0.186364,0.115954
786.033444,0.656818,0.151111
786.066888,0.236364,0.057135
786.100332,0.270455,0.168255
786.133776,0.022727,0.067228
786.167219,-0.090909,0.045455
786.200662,0.124242,0.037206
786.234104,-0.020455,0.039414
786.267547,0.131818,0.125371
786.300989,0.227273,0.171587
786.334431,0.206818,0.048252
786.367872,0.234091,0.069560
786.401314,0.552273,0.206140
786.434755,-0.004545,0.059396
786.468196,0.436364,0.189715
786.501636,0.350000,0.099248
786.535076,-0.004545,0.221320
786.568516,0.115909,0.037397
786.601956,0.372727,0.147500
786.635395,0.495455,0.131799
786.668834,0.022727,0.037689
786.702273,-0.075000,0.091384
786.735712,0.140909,0.099664
786.769150,0.120455,0.157242
786.802588,0.475000,0.256936
786.836026,1.259091,0.463029
786.869463,4.255303,0.102418
786.902900,10.736364,1.000754
786.936337,13.043182,0.764362
786.969774,13.573485,0.720066
787.003210,5.931818,0.729666
787.036646,2.360606,0.356086
787.070082,0.272727,0.208299
787.103518,-0.186364,0.055809
787.136953,-0.310606,0.037689
787.170388,0.209091,0.188349
787.203823,0.714394,0.082282
787.237257,0.063636,0.136136
787.270691,0.090909,0.045455
787.304125,0.403788,0.038081
787.337559,0.302273,0.103322
787.370992,-0.279545,0.032679
787.404425,0.143182,0.096337
787.437858,0.231818,0.067535
787.471290,-0.300000,0.056954
787.504723,-0.090909,0.045455
787.538155,0.163636,0.067726
787.571586,0.370455,0.159848
787.605018,0.093182,0.032201
787.638449,0.248485,0.067113
787.671880,-0.186364,0.032381
787.705310,0.165909,0.062521
787.738741,0.111364,0.088629
787.772171,1.070455,0.438706
787.805600,-0.186364,0.003936
787.839030,0.422727,0.256194
787.872459,0.400000,0.162496
787.905888,0.284091,0.144076
787.939317,0.027273,0.069976
787.972745,-0.031061,0.049101
788.006173,0.231818,0.098622
788.039601,-0.047727,0.023918
788.073028,0.127273,0.178261
788.106456,0.247727,0.194856
788.139883,0.047727,0.023918
788.173309,0.115909,0.019117
788.206736,0.138636,0.067831
788.240162,0.552273,0.318399
788.273588,0.179545,0.117233
788.307013,0.738636,0.174849
788.340439,0.022727,0.081153
788.373864,0.304545,0.224379
788.407288,0.061364,0.118242
788.440713,0.209091,0.037206
788.474137,0.506818,0.276085
788.507561,0.124242,0.018741
788.540985,0.202273,0.118982
788.574408,0.213636,0.085854
788.607831,0.436364,0.139509
788.641254,0.277273,0.053926
788.674677,0.975000,0.113426
788.708099,2.436364,0.575714
788.741521,9.372727,0.908102
788.774943,17.684091,0.544463
788.808364,20.650000,0.354334
788.841785,16.027273,0.398784
788.875206,4.897727,0.497508
788.908627,1.056061,0.258762
788.942047,0.281818,0.075103
788.975467,0.465909,0.116304
789.008887,-0.045455,0.039365
789.042306,0.027273,0.089420
789.075726,0.211364,0.114243
789.109145,0.229545,0.214056
789.142563,0.322727,0.092123
789.175982,0.156818,0.272071
789.209400,0.095455,0.047835
789.242817,0.138636,0.067831
789.276235,0.138636,0.038753
789.309652,0.534091,0.278525
789.343069,-0.138636,0.050347
789.376486,0.204545,0.067228
789.409902,0.020455,0.050858
789.443319,0.186364,0.003936
789.476735,0.297727,0.085966
789.510150,0.509091,0.143596
789.543565,0.231818,0.098622
789.576980,-0.188636,0.037119
789.610395,0.086364,0.099664
789.643810,0.047727,0.040064
789.677224,-0.093182,0.032201
789.710638,0.496970,0.298827
789.744052,0.270455,0.148699
789.777465,0.227273,0.304070
789.810878,0.113636,0.074516
789.844291,0.184091,0.054770
789.877703,0.436364,0.163384
789.911116,0.341667,0.177167
789.944528,0.284091,0.096925
789.977939,0.181818,0.071870
790.011351,-0.070455,0.049832
790.044762,0.445455,0.080417
790.078173,0.124242,0.066959
790.111583,0.581818,0.269603
790.144994,0.590152,0.068059
790.178404,0.134091,0.178243
790.211813,-0.768182,0.162034
790.245223,-0.004545,0.074793
790.278632,0.800000,0.478936
790.312041,0.413636,0.215646
790.345450,0.186364,0.140156
790.378858,0.181818,0.085038
790.412266,0.390909,0.203126
790.445674,0.118182,0.039886
790.479081,0.209091,0.144957
790.512488,0.463636,0.159610
790.545895,2.034091,0.737039
790.579302,4.911364,0.556798
790.612708,12.911364,0.734414
790.646115,25.694697,0.669822
790.679520,31.557576,0.865094
790.712926,17.827273,1.205300
790.746331,5.111364,0.648985
790.779736,0.869697,0.262419
790.813141,0.211364,0.061269
790.846545,0.140909,0.040846
790.879949,-0.070455,0.020423
790.913353,0.152273,0.172589
790.946757,0.002273,0.079407
790.980160,0.320455,0.170844
791.013563,0.320455,0.092340
791.046966,0.161364,0.117233
791.080368,0.124242,0.074273
791.113771,0.065909,0.060591
791.147173,0.020455,0.060163
791.180574,0.090909,0.096424
791.213976,0.250000,0.216506
791.247377,0.025000,0.038753
791.280777,0.310606,0.081153
791.314178,-0.070455,0.049832
791.347578,0.202273,0.156484
791.380978,0.165909,0.062521
791.414378,-0.159091,0.067228
791.447777,0.134091,0.175321
791.481176,0.300000,0.072869
791.514575,0.456818,0.237505
791.547973,0.465909,0.140446
791.581372,0.756818,0.371831
791.614770,0.443182,0.186291
791.648167,0.365909,0.094823
791.681565,0.159091,0.067228
791.714962,0.300000,0.056954
791.748359,0.354545,0.095671
791.781755,0.113636,0.103528
791.815152,0.706818,0.453070
791.848548,0.538636,0.165250
791.881943,0.204545,0.130063
791.915339,0.093182,0.111358
791.948734,0.184091,0.135999
791.982129,0.118182,0.099274
792.015523,0.186364,0.032381
792.048918,-0.031061,0.074230
792.082312,-0.020455,0.060163
792.115705,0.445455,0.066339
792.149099,0.093182,0.055705
792.182492,0.070455,0.020423
792.215885,0.090909,0.229534
792.249278,0.213636,0.296563
792.282670,0.124242,0.049167
792.316062,0.155303,0.018844
792.349454,0.217424,0.049311
792.382845,0.465909,0.193098
792.416236,2.375000,0.673889
792.449627,6.720455,0.753116
792.483018,14.752273,1.272993
792.516408,31.619697,1.085752
792.549798,36.775758,1.581283
792.583188,24.325000,2.024561
792.616578,7.622727,0.679188
792.649967,2.243182,0.674302
792.683356,0.540909,0.158815
792.716745,0.295455,0.158685
792.750133,0.259091,0.111038
792.783521,0.043182,0.041333
792.816909,0.302273,0.074230
792.850296,0.411364,0.097244
792.883684,0.181818,0.106600
792.917071,0.025000,0.067831
792.950457,0.341667,0.098458
792.983844,-0.113636,0.074516
793.017230,0.531818,0.169269
793.050616,0.090909,0.055670
793.084001,-0.236364,0.057135
793.117386,0.140909,0.104718
793.150771,0.281818,0.038836
793.184156,0.531818,0.110104
793.217541,0.506818,0.205261
793.250925,0.231818,0.152171
793.284309,0.559091,0.065358
793.317692,0.163636,0.038569
793.351075,0.297727,0.179398
793.384458,0.231818,0.038233
793.417841,0.234091,0.083095
793.451223,0.461364,0.081526
793.484606,0.386364,0.216506
793.517988,0.159091,0.087286
793.551369,0.186364,0.115954
793.584750,0.252273,0.121133
793.618131,0.134091,0.095095
793.651512,0.222727,0.357064
793.684893,0.409091,0.302367
793.718273,0.211364,0.088804
793.751653,0.095455,0.125371
793.785032,0.090909,0.085038
793.818411,0.181818,0.096424
793.851790,0.159091,0.247665
793.885169,0.227273,0.196824
793.918548,0.165909,0.089672
793.951926,0.020455,0.039414
793.985304,0.309091,0.182272
794.018681,0.184091,0.078096
794.052059,-0.029545,0.102821
794.085436,0.206818,0.073671
794.118812,0.217424,0.103422
794.152189,0.310606,0.103528
794.185565,0.497727,0.229880
794.218941,0.206818,0.097774
794.252317,1.227273,0.469636
794.285692,1.125000,0.327531
794.319067,6.088636,0.601568
794.352442,21.663636,0.521778
794.385816,48.547727,1.410155
794.419190,55.955682,1.880330
794.452564,50.597727,1.471732
794.485938,16.586364,0.746766
794.519311,4.907576,0.443892
794.552684,0.643182,0.178474
794.586057,0.068182,0.180034
794.619429,0.093182,0.032201
794.652802,0.163636,0.050206
794.686173,0.277273,0.077506
794.719545,0.159091,0.193849
794.752916,0.013636,0.176440
794.786287,-0.248485,0.019285
794.819658,0.550000,0.193422
794.853029,-0.020455,0.039414
794.886399,-0.022727,0.049533
794.919769,0.004545,0.087522
794.953138,0.509091,0.101436
794.986508,0.134091,0.219771
795.019877,0.000000,0.000000
795.053245,0.002273,0.079407
795.086614,0.124242,0.049167
795.119982,0.252273,0.080055
795.153350,0.115909,0.019117
795.186718,0.393182,0.179052
795.220085,0.865909,0.397115
795.253452,0.302273,0.018568
795.286819,0.279545,0.085242
795.320185,0.590152,0.081842
795.353551,-0.020455,0.081968
795.386917,0.822727,0.441652
795.420283,-0.062121,0.066920
795.453648,0.434848,0.038233
795.487013,0.093182,0.055705
795.520378,0.065909,0.109251
795.553742,0.111364,0.152810
795.587107,0.143182,0.055519
795.620471,0.254545,0.179646
795.653834,0.393182,0.101811
795.687197,0.329545,0.058773
795.720560,-0.062121,0.074239
795.753923,0.124242,0.018741
795.787286,0.470455,0.171839
795.820648,0.388636,0.179110
795.854010,0.050000,0.135661
795.887371,0.118182,0.023619
795.920733,0.415909,0.182056
795.954094,0.254545,0.097701
795.987454,0.217424,0.112970
796.020815,0.561364,0.106036
796.054175,0.248485,0.067113
796.087535,0.434848,0.122031
796.120894,0.586364,0.096504
796.154254,0.920455,0.246030
796.187613,3.789394,0.555341
796.220971,11.290909,0.917033
796.254330,49.829545,0.460858
796.287688,110.286364,4.086833
796.321046,135.082576,4.569831
796.354403,79.421970,3.191641
796.387761,19.102273,1.456885
796.421118,3.572727,0.294123
796.454474,0.995455,0.141622
796.487831,0.222727,0.134129
796.521187,0.279545,0.140225
796.554543,0.327273,0.135451
796.587898,0.184091,0.078096
796.621254,0.372727,0.056224
796.654609,0.313636,0.207342
796.687963,0.515909,0.127491
796.721318,-0.215909,0.131911
796.754672,-0.422727,0.126683
796.788026,0.186364,0.115954
796.821379,0.155303,0.080953
796.854732,0.572727,0.307516
796.888085,0.020455,0.060163
796.921438,0.090909,0.136364
796.954790,0.072727,0.041161
796.988142,0.368182,0.122874
797.021494,0.486364,0.233848
797.054846,-0.031818,0.136117
797.088197,0.179545,0.161679
797.121548,0.495455,0.143074
797.154899,0.088636,0.140850
797.188249,0.613636,0.267710
797.221599,0.843182,0.214538
797.254949,1.343182,0.200989
797.288298,0.679545,0.144649
797.321648,0.440909,0.251309
797.354996,-0.043182,0.076424
797.388345,0.300000,0.056954
797.421693,0.511364,0.112924
797.455041,0.217424,0.067065
797.488389,0.865909,0.290436
797.521737,0.138636,0.067831
797.555084,0.155303,0.129939
797.588431,0.352273,0.187672
797.621777,0.168182,0.092793
797.655124,0.231818,0.206843
797.688470,0.390909,0.101334
797.721815,0.279545,0.085242
797.755161,0.062121,0.092793
797.788506,0.611364,0.116126
797.821851,0.248485,0.049376
797.855196,0.621212,0.177506
797.888540,0.310606,0.214107
797.921884,0.397727,0.202881
797.955228,0.322727,0.203824
797.988571,0.436364,0.166515
798.021914,0.434848,0.038233
798.055257,0.981818,0.341424
798.088599,4.786364,0.823552
798.121942,17.213636,1.146921
798.155284,57.709091,1.425216
798.188625,124.335606,6.356327
798.221967,146.015909,4.605410
798.255308,81.503030,2.545097
798.288649,19.164394,0.531015
798.321989,4.472727,0.941271
798.355329,1.618182,0.391859
798.388669,-0.327273,0.042640
798.422009,0.411364,0.305179
798.455348,0.163636,0.067726
798.488687,0.134091,0.123456
798.522026,0.525000,0.178677
798.555365,0.304545,0.069939
798.588703,0.456818,0.248141
798.622041,0.277273,0.083906
798.655378,0.340909,0.269632
798.688716,0.070455,0.038081
798.722053,0.493182,0.100534
798.755389,0.261364,0.094222
798.788726,0.161364,0.066679
798.822062,0.248485,0.177098
798.855398,0.256818,0.098981
798.888733,0.217424,0.049311
798.922069,0.390909,0.238236
798.955404,0.211364,0.114243
798.988738,0.531818,0.062117
799.022073,0.155303,0.049206
799.055407,0.372727,0.085401
799.088741,0.341667,0.193872
799.122074,0.547727,0.162317
799.155408,0.659091,0.295236
799.188741,0.422727,0.099248
799.222073,0.406818,0.326283
799.255406,0.113636,0.074516
799.288738,0.093182,0.064313
799.322069,0.372727,0.147500
799.355401,-0.072727,0.041161
799.388732,0.084091,0.173782
799.422063,0.138636,0.067831
799.455394,-0.002273,0.056625
799.488724,0.620455,0.293321
799.522054,0.343182,0.242882
799.555384,0.118182,0.039886
799.588713,0.525000,0.178677
799.622042,-0.062121,0.151899
799.655371,0.231818,0.113249
799.688700,-0.190909,0.163447
799.722028,0.479545,0.184508
799.755356,0.638636,0.223615
799.788684,0.181818,0.111340
799.822011,0.118182,0.088257
799.855338,0.550000,0.291432
799.888665,0.468182,0.089391
799.921992,0.781818,0.459923
799.955318,1.331818,0.179344
799.988644,5.140909,0.699184
800.021969,21.804545,1.656360
800.055295,85.129545,2.060972
800.088620,191.661364,5.889755
800.121945,267.214394,7.930972
800.155269,151.731061,3.302476
800.188593,42.025000,2.467507
800.221917,9.563636,0.471107
800.255241,1.802273,0.660018
800.288564,1.190909,0.267873
800.321887,0.155303,0.066988
800.355210,0.352273,0.164184
800.388532,0.565909,0.195517
800.421854,0.211364,0.180775
800.455176,0.070455,0.093175
800.488498,0.384091,0.388236
800.521819,0.234091,0.052654
800.555140,-0.143182,0.154089
800.588461,0.031061,0.018568
800.621781,0.211364,0.069188
800.655101,0.618182,0.361414
800.688421,-0.229545,0.067065
800.721740,0.022727,0.067228
800.755060,0.022727,0.049533
800.788379,0.124242,0.018741
800.821697,0.136364,0.093707
800.855015,0.297727,0.151282
800.888334,0.477273,0.168166
800.921651,0.496970,0.103851
800.954969,0.354545,0.235882
800.988286,0.429545,0.248869
801.021603,-0.031061,0.049101
801.054919,0.409091,0.228406
801.088235,1.131818,0.234466
801.121551,0.409091,0.254099
801.154867,-0.031061,0.080890
801.188183,0.184091,0.044347
801.221498,0.320455,0.137321
801.254812,0.804545,0.357238
801.288127,0.155303,0.066988
801.321441,0.159091,0.067228
801.354755,0.872727,0.228089
801.388069,0.486364,0.101309
801.421382,-0.186364,0.192887
801.454695,0.363636,0.192847
801.488008,0.502273,0.213331
801.521320,0.725000,0.233558
801.554632,0.568182,0.439965
801.587944,0.418182,0.151984
801.621256,0.415909,0.064952
801.654567,0.743182,0.258100
801.687878,0.261364,0.118504
801.721189,0.095455,0.073399
801.754499,0.304545,0.089391
801.787809,0.372727,0.033091
801.821119,1.081818,0.323111
801.854428,1.156818,0.180832
801.887737,2.356818,0.585759
801.921046,10.125758,0.417360
801.954355,45.065909,1.000286
801.987663,158.346970,4.201330
802.020971,284.954545,2.037484
802.054279,272.991667,5.871065
802.087586,109.240152,3.478862
802.120894,19.164394,0.966352
802.154200,5.184091,0.496687
802.187507,1.436364,0.266675
802.220813,0.977273,0.361321
802.254119,0.415909,0.170329
802.287425,0.461364,0.214249
802.320730,0.572727,0.387752
802.354035,-0.209091,0.037206
802.387340,0.217424,0.074369
802.420644,0.256818,0.148976
802.453949,0.704545,0.532396
802.487252,0.093182,0.085060
802.520556,0.236364,0.097277
802.553859,0.310606,0.049533
802.587162,0.540909,0.281332
802.620465,0.047727,0.051363
802.653767,0.325000,0.177167
802.687069,0.310606,0.037689
802.720371,0.621212,0.207055
802.753673,0.622727,0.216411
802.786974,0.111364,0.177807
802.820275,0.252273,0.065899
802.853576,0.656818,0.253292
802.886876,0.062121,0.133821
802.920176,0.563636,0.252753
802.953476,0.888636,0.400805
802.986775,0.922727,0.364679
803.020074,1.087121,0.043643
803.053373,0.213636,0.056909
803.086672,0.254545,0.057854
803.119970,0.806818,0.214634
803.153268,0.062121,0.018603
803.186565,0.047727,0.051363
803.219863,0.311364,0.298903
803.253160,0.322727,0.065987
803.286457,0.161364,0.036699
803.319753,0.868182,0.251062
803.353049,0.193182,0.368005
803.386345,0.640909,0.346194
803.419641,0.568182,0.280891
803.452936,0.509091,0.181705
803.486231,0.443182,0.024766
803.519525,0.279545,0.064553
803.552820,0.113636,0.074516
803.586114,0.668182,0.091673
803.619408,0.975000,0.326915
803.652701,0.496970,0.081565
803.685994,0.345455,0.218087
803.719287,0.745455,0.086483
803.752580,0.677273,0.170727
803.785872,1.247727,0.297638
803.819164,3.675000,0.545155
803.852456,17.702273,2.356338
803.885747,59.481818,1.702617
803.919038,197.700758,4.702167
803.952329,362.135606,7.656277
803.985620,347.256818,5.816156
804.018910,104.779545,5.465064
804.052200,17.176515,0.469915
804.085489,3.571970,0.090017
804.118779,1.520455,0.308210
804.152068,1.025000,0.223731
804.185357,1.411364,0.358131
804.218645,0.802273,0.228821
804.251933,0.869697,0.123064
804.285221,0.845455,0.187248
804.318508,0.490909,0.090682
804.351796,0.690909,0.157983
804.385083,0.838636,0.179829
804.418369,0.020455,0.075404
804.451656,0.690909,0.097277
804.484942,0.411364,0.232116
804.518227,-0.163636,0.050206
804.551513,0.788636,0.244006
804.584798,0.350000,0.082165
804.618083,0.068182,0.067228
804.651367,0.090909,0.071870
804.684652,0.529545,0.159363
804.717936,0.061364,0.118242
804.751219,0.093182,0.032201
804.784503,0.370455,0.083405
804.817786,0.275000,0.160074
804.851068,0.059091,0.141330
804.884351,0.248485,0.121798
804.917633,0.528030,0.130375
804.950915,0.618182,0.126295
804.984196,0.588636,0.259437
805.017478,0.986364,0.339748
805.050759,0.140909,0.025206
805.084039,0.745455,0.280643
805.117320,0.388636,0.085364
805.150600,0.597727,0.155756
805.183879,0.538636,0.171388
805.217159,0.279545,0.116037
805.250438,0.738636,0.109440
805.283717,0.454545,0.246881
805.316995,1.245455,0.463926
805.350274,0.411364,0.161200
805.383552,0.831818,0.221133
805.416829,0.248485,0.081057
805.450107,1.109091,0.582138
805.483384,0.581818,0.098333
805.516660,0.595455,0.159464
805.549937,1.138636,0.267861
805.583213,0.765909,0.189289
805.616489,0.906818,0.055705
805.649764,0.838636,0.179829
805.683040,1.427273,0.342481
805.716315,1.434091,0.353559
805.749589,4.175000,0.470771
805.782864,22.684091,1.453321
805.816138,98.244697,3.517651
805.849411,346.304545,3.648607
805.882685,653.918939,18.175539
805.915958,691.609091,16.149986
805.949231,248.857576,7.020267
805.982504,38.546212,1.441717
806.015776,4.500000,0.460753
806.049048,1.404545,0.393405
806.082319,0.068182,0.117546
806.115591,0.659091,0.408301
806.148862,0.209091,0.098228
806.182133,0.345455,0.150893
806.215403,0.593182,0.203161
806.248673,0.155303,0.018844
806.281943,0.213636,0.085854
806.315213,0.372727,0.210911
806.348482,0.381818,0.317597
806.381751,0.886364,0.357006
806.415019,-0.072727,0.239748
806.448288,0.590152,0.130494
806.481556,0.486364,0.262960
806.514823,0.436364,0.119572
806.548091,0.515909,0.149841
806.581358,0.511364,0.209150
806.614625,0.570455,0.335339
806.647891,0.248485,0.098333
806.681158,0.372727,0.111618
806.714424,0.390909,0.175869
806.747689,0.434848,0.162034
806.780955,0.088636,0.133313
806.814220,0.461364,0.081526
806.847484,1.029545,0.270700
806.880749,0.990909,0.262419
806.914013,0.518182,0.327367
806.947277,0.807576,0.183557
806.980540,-0.045455,0.050820
807.013803,0.279545,0.064553
807.047066,0.322727,0.047835
807.080329,0.403788,0.067449
807.113591,1.145455,0.351443
807.146853,0.372727,0.085401
807.180115,0.838636,0.278914
807.213376,0.745455,0.086483
807.246637,0.279545,0.116037
807.279898,0.968182,0.264917
807.313159,0.779545,0.212919
807.346419,0.025000,0.117892
807.379679,0.393182,0.124622
807.412938,0.272727,0.124482
807.446198,1.279545,0.231849
807.479457,1.025000,0.290080
807.512715,0.962879,0.244218
807.545974,1.097727,0.127085
807.579232,1.163636,0.122137
807.612490,1.352273,0.128941
807.645747,2.243182,0.381431
807.679004,3.263636,0.201902
807.712261,11.461364,0.244218
807.745518,69.240909,4.789983
807.778774,337.843182,9.501618
807.812030,809.656818,19.100625
807.845285,1016.986364,22.244735
807.878541,600.618939,13.382838
807.911796,118.620455,3.149181
807.945051,13.356061,0.491009
807.978305,1.750000,0.216506
808.011559,0.496970,0.081565
808.044813,0.897727,0.464764
808.078066,0.488636,0.188359
808.111320,0.479545,0.208184
808.144573,0.406818,0.179110
808.177825,0.881818,0.196929
808.211078,0.440909,0.116487
808.244330,0.681818,0.245833
808.277581,0.909091,0.274615
808.310833,0.838636,0.450326
808.344084,0.272727,0.096424
808.377335,0.456818,0.237505
808.410585,0.590152,0.081842
808.443835,0.481818,0.262576
808.477085,0.370455,0.083405
808.510335,-0.031061,0.121686
808.543584,0.415909,0.033460
808.576833,0.202273,0.207563
808.610082,0.434848,0.122031
808.643330,0.231818,0.257962
808.676578,0.559091,0.056909
808.709826,0.350000,0.023509
808.743073,0.711364,0.354988
808.776320,0.776515,0.214634
808.809567,1.366667,0.499111
808.842814,0.959091,0.085129
808.876060,0.186364,0.055809
808.909306,0.284091,0.091440
808.942552,0.496970,0.134226
808.975797,0.652273,0.086147
809.009042,0.622727,0.269555
809.042287,0.740909,0.187235
809.075531,0.397727,0.119588
809.108775,0.559091,0.167428
809.142019,0.206818,0.107823
809.175262,0.345455,0.056040
809.208506,0.186364,0.055809
809.241748,0.527273,0.244019
809.274991,0.745455,0.057854
809.308233,0.861364,0.196703
809.341475,0.496970,0.103851
809.374717,0.847727,0.183328
809.407958,1.511364,0.177050
809.441199,1.038636,0.109392
809.474440,0.975000,0.587889
809.507680,1.025000,0.117892
809.540921,2.620455,0.682563
809.574160,1.428788,0.073399
809.607400,1.708333,0.197070
809.640639,3.915909,0.324982
809.673878,16.679545,0.691711
809.707117,85.579545,2.673590
809.740355,354.965909,4.939912
809.773593,848.171970,18.426033
809.806831,959.741667,23.493099
809.840068,427.425000,10.371565
809.873305,65.506818,1.892046
809.906542,11.414394,0.462138
809.939778,4.434091,0.745443
809.973015,2.845455,0.736265
810.006250,2.640152,0.211605
810.039486,3.106061,0.641618
810.072721,1.708333,0.300815
810.105956,1.509091,0.403958
810.139191,1.322727,0.116841
810.172425,0.865909,0.239778
810.205659,0.663636,0.216423
810.238893,0.310606,0.019682
810.272126,1.377273,0.330500
810.305359,0.281818,0.117919
810.338592,0.447727,0.222991
810.371825,0.900758,0.260490
810.405057,0.804545,0.199522
810.438289,0.879545,0.233845
810.471520,0.513636,0.215454
810.504751,0.124242,0.112907
810.537982,0.531818,0.244220
810.571213,0.572727,0.252140
810.604443,0.525000,0.272545
810.637673,0.528030,0.130375
810.670903,0.425000,0.171388
810.704133,0.693182,0.358405
810.737362,0.911364,0.201245
810.770591,0.496970,0.162114
810.803819,0.227273,0.138245
810.837047,0.496970,0.214264
810.870275,0.652273,0.034970
810.903503,0.718182,0.087787
810.936730,-0.181818,0.064282
810.969957,0.915909,0.182481
811.003184,0.561364,0.119761
811.036410,0.279545,0.085242
811.069636,0.463636,0.104940
811.102862,0.720455,0.064553
811.136087,0.475000,0.248973
811.169312,0.640909,0.136420
811.202537,-0.031061,0.049101
811.235762,0.713636,0.347564
811.268986,0.403788,0.081335
811.302210,-0.186364,0.055809
811.335433,0.093182,0.055705
811.368656,0.625000,0.138594
811.401879,0.988636,0.351493
811.435102,2.236364,0.555178
811.468324,1.161364,0.843120
811.501546,1.195455,0.702368
811.534768,1.352273,0.675802
811.567990,2.145455,0.207205
811.601211,2.954545,0.428215
811.634432,12.022727,0.991896
811.667652,66.314394,2.524998
811.700872,244.111364,3.220464
811.734092,603.840909,10.442007
811.767312,730.172727,16.187495
811.800531,374.528788,10.041121
811.833750,54.359091,2.338859
811.866969,5.156061,0.467779
811.900187,2.174242,0.415822
811.933405,0.465909,0.085605
811.966623,1.309091,0.427804
811.999840,0.468182,0.083412
812.033057,0.434848,0.177258
812.066274,0.031061,0.193739
812.099490,0.525000,0.316397
812.132707,0.877273,0.109162
812.165923,0.881818,0.256204
812.199138,0.124242,0.037206
812.232353,0.245455,0.275253
812.265568,0.818182,0.369274
812.298783,0.143182,0.120192
812.331997,0.115909,0.133893
812.365211,0.479545,0.208184
812.398425,0.297727,0.229880
812.431638,-0.025000,0.148872
812.464851,0.248485,0.037483
812.498064,-0.143182,0.055519
812.531277,0.450000,0.241412
812.564489,0.493182,0.304552
812.597701,0.881818,0.060473
812.630912,0.325000,0.193872
812.664123,0.217424,0.103422
