#{
#    "background_file": "Backgrounds\\\\bg_785.995nm_13bin_219st_244en_10.0s_110g_4x_13_seq.txt",
#    "ccd_image_settings": [
#        1,
#        13,
#        1,
#        1600,
#        219,
#        244
#    ],
#    "ccd_temperature": "-87",
#    "cdRatios": {
#        "mean": 0.944903217317681,
#        "std": 0.009063643895721542
#    },
#    "center_lambda": 786.0,
#    "comments": "",
#    "dark_region": 46.250175908425966,
#    "date": "10/22/20 17:59:45PM",
#    "eff_field": 1.5,
#    "exposure": 10.0,
#    "fel_lambda": "15.0",
#    "fel_pol": "H",
#    "fel_pulses": 43,
#    "fel_pyro_cal": "0.012",
#    "fel_reprate": "1.07",
#    "fel_transmission": "1.0",
#    "fel_transmission_fits": {
#        "A": 1.0,
#        "C": 0.0,
#        "Mu": 0.0
#    },
#    "fieldInt": {
#        "mean": 5159.886280303031,
#        "std": 134.30549075412213
#    },
#    "fieldStrength": {
#        "mean": 32.955335227272734,
#        "std": 0.4325874387733384
#    },
#    "fpTime": {
#        "mean": 1.1110655408650447,
#        "std": 0.05244312259887028
#    },
#    "gain": 110,
#    "grating": 3,
#    "images_in_sequence": [
#        "hsg_820nm_c123_a00_HAna553.txt",
#        "hsg_820nm_c123_a00_HAna554.txt",
#        "hsg_820nm_c123_a00_HAna555.txt",
#        "hsg_820nm_c123_a00_HAna556.txt"
#    ],
#    "nir_lambda": "819.98",
#    "nir_pola": "00",
#    "nir_polg": "0",
#    "nir_power": "100.0",
#    "pulseEnergies": {
#        "mean": 1.5774734848484848,
#        "std": 0.05096407282173383
#    },
#    "pyroVoltage": {
#        "mean": 0.13917767546695992,
#        "std": 0.005570916864788839
#    },
#    "rotatorAngle": 135.0,
#    "sample_Temp": "55",
#    "sample_name": "L001218.C1",
#    "series": "820_Fan",
#    "slits": "60",
#    "spec_step": "",
#    "window_trans": 0.92,
#    "y_max": 2,
#    "y_min": 1
#}
#
#
#
#
#
#
#
#
#
#
#
#
#
#
#
#
#
#
#
#
#
#
#
#
#
#
Wavelength,Signal,error
nm,arb. u.,arb.u.
Wavelength,820_Fan,error
759.194366,0.025000,0.038753
759.228015,0.015909,0.134009
759.261663,0.211364,0.061269
759.295311,0.062121,0.018603
759.328959,0.459091,0.273512
759.362607,0.363636,0.128565
759.396254,0.031061,0.080890
759.429901,-0.062121,0.018603
759.463548,0.461364,0.067678
759.497194,-0.095455,0.086334
759.530841,0.661364,0.304501
759.564487,-0.095455,0.035428
759.598133,0.063636,0.153943
759.631779,0.015909,0.098458
759.665424,0.213636,0.072834
759.699069,0.109091,0.136515
759.732714,0.247727,0.172349
759.766359,0.248485,0.067113
759.800003,0.629545,0.214971
759.833648,0.606818,0.229610
759.867292,-0.027273,0.089420
759.900935,0.329545,0.148490
759.934579,0.484091,0.178185
759.968222,-0.090909,0.132522
760.001865,-0.143182,0.055519
760.035508,0.652273,0.278692
760.069151,0.386364,0.289940
760.102793,0.300000,0.072869
760.136435,0.229545,0.199052
760.170077,0.093182,0.085060
760.203718,-0.093182,0.167022
760.237360,-0.581818,0.067113
760.271001,-0.138636,0.021651
760.304642,-0.072727,0.076331
760.338283,0.352273,0.164184
760.371923,0.065909,0.082282
760.405563,0.134091,0.095095
760.439203,0.075000,0.064952
760.472843,0.234091,0.083095
760.506482,0.184091,0.187148
760.540122,0.248485,0.145028
760.573761,0.320455,0.121346
760.607399,0.440909,0.065358
760.641038,0.002273,0.046619
760.674676,0.372727,0.056224
760.708314,0.413636,0.147342
760.741952,0.134091,0.159913
760.775589,-0.140909,0.082666
760.809227,0.277273,0.070528
760.842864,0.347727,0.140776
760.876501,-0.075000,0.132848
760.910137,0.341667,0.037809
760.943774,0.341667,0.049624
760.977410,0.315909,0.215499
761.011046,0.000000,0.055670
761.044681,0.236364,0.057135
761.078317,0.043182,0.052359
761.111952,0.022727,0.049533
761.145587,-0.006818,0.128298
761.179221,0.493182,0.163206
761.212856,-0.248485,0.019285
761.246490,0.322727,0.151491
761.280124,0.320455,0.102921
761.313758,-0.062121,0.066920
761.347391,0.370455,0.131480
761.381024,0.109091,0.160835
761.414657,0.093182,0.128580
761.448290,0.155303,0.018844
761.481923,0.204545,0.067228
761.515555,-0.031061,0.049101
761.549187,-0.279545,0.055982
761.582819,0.002273,0.046619
761.616450,-0.468182,0.053155
761.650082,-0.045455,0.113636
761.683713,0.095455,0.073399
761.717344,-0.086364,0.138674
761.750974,-0.302273,0.080890
761.784605,0.038636,0.104564
761.818235,0.413636,0.170121
761.851865,0.118182,0.099274
761.885494,-0.248485,0.103453
761.919124,0.281818,0.126377
761.952753,-0.018182,0.070711
761.986382,0.550000,0.291432
762.020010,0.022727,0.019682
762.053639,-0.025000,0.087751
762.087267,0.768182,0.182993
762.120895,0.279545,0.085242
762.154523,0.106818,0.254472
762.188150,-0.118182,0.068484
762.221777,0.465909,0.170360
762.255404,0.222727,0.261936
762.289031,0.341667,0.161935
762.322658,0.297727,0.112051
762.356284,0.054545,0.139953
762.389910,-0.095455,0.133357
762.423536,0.000000,0.032141
762.457161,0.211364,0.088804
762.490786,0.152273,0.172589
762.524411,-0.077273,0.114700
762.558036,0.111364,0.130968
762.591661,0.140909,0.082666
762.625285,-0.609091,0.055111
762.658909,0.115909,0.103422
762.692533,0.197727,0.246847
762.726157,-0.002273,0.079407
762.759780,0.204545,0.126029
762.793403,0.411364,0.249284
762.827026,0.181818,0.132522
762.860649,0.045455,0.068182
762.894271,0.136364,0.183233
762.927893,0.088636,0.220826
762.961515,0.345455,0.078992
762.995137,0.136364,0.196824
763.028758,0.159091,0.059047
763.062379,0.131818,0.188006
763.096000,0.227273,0.099066
763.129621,0.300000,0.164329
763.163241,-0.075000,0.091384
763.196862,0.124242,0.092821
763.230481,1.104545,0.522762
763.264101,0.052273,0.073881
763.297721,0.155303,0.092842
763.331340,0.661364,0.189480
763.364959,0.015909,0.145112
763.398578,-0.209091,0.218796
763.432196,0.170455,0.179225
763.465814,0.079545,0.424086
763.499432,0.570455,0.235869
763.533050,0.325000,0.081208
763.566668,0.062121,0.103328
763.600285,-0.040909,0.096504
763.633902,0.761364,0.163395
763.667519,0.320455,0.080377
763.701135,0.445455,0.249504
763.734752,0.155303,0.092842
763.768368,0.155303,0.080953
763.801984,-0.034091,0.189725
763.835599,0.393182,0.154257
763.869215,0.409091,0.183233
763.902830,0.000000,0.032141
763.936444,-0.002273,0.079407
763.970059,-0.043182,0.104909
764.003673,0.155303,0.037258
764.037288,0.202273,0.094823
764.070901,-0.236364,0.057135
764.104515,-0.261364,0.094222
764.138128,0.229545,0.067065
764.171742,0.118182,0.068484
764.205354,0.022727,0.103528
764.238967,0.365909,0.194723
764.272580,-0.122727,0.113795
764.306192,0.225000,0.139560
764.339804,0.525000,0.453298
764.373415,0.002273,0.072612
764.407027,0.268182,0.170121
764.440638,0.118182,0.068484
764.474249,0.020455,0.050858
764.507860,-0.393182,0.055982
764.541470,0.338636,0.163427
764.575080,0.097727,0.061269
764.608690,0.086364,0.104718
764.642300,-0.447727,0.079602
764.675909,-0.168182,0.074239
764.709519,0.302273,0.018568
764.743128,0.359091,0.198691
764.776736,-0.075000,0.072469
764.810345,-0.025000,0.067831
764.843953,0.040909,0.150807
764.877561,0.020455,0.060163
764.911169,0.062121,0.037137
764.944776,0.388636,0.229655
764.978384,0.161364,0.117233
765.011991,0.168182,0.108211
765.045598,0.227273,0.145526
765.079204,0.093182,0.001968
765.112810,0.136364,0.122390
765.146416,0.634091,0.194723
765.180022,0.159091,0.103528
765.213628,-0.209091,0.098228
765.247233,-0.062121,0.049114
765.280838,0.565909,0.128580
765.314443,0.031061,0.018568
765.348048,0.272727,0.187414
765.381652,0.111364,0.180689
765.415256,0.040909,0.096504
765.448860,0.436364,0.219974
765.482463,-0.279545,0.055982
765.516067,0.217424,0.049311
765.549670,0.093182,0.032201
765.583273,0.870455,0.368692
765.616875,0.488636,0.103372
765.650478,-0.186364,0.032381
765.684080,0.217424,0.081017
765.717682,0.127273,0.242149
765.751283,-0.236364,0.097277
765.784885,0.743182,0.465198
765.818486,0.322727,0.047835
765.852087,0.248485,0.145028
765.885687,0.134091,0.159913
765.919288,0.190909,0.110689
765.952888,0.175000,0.237353
765.986488,0.310606,0.049533
766.020087,-0.204545,0.067228
766.053687,-0.031818,0.111038
766.087286,0.047727,0.082282
766.120885,0.590152,0.328539
766.154484,0.248485,0.067113
766.188082,0.245455,0.232530
766.221680,0.025000,0.038753
766.255278,-0.095455,0.035428
766.288876,-0.002273,0.056625
766.322473,0.109091,0.101843
766.356070,0.217424,0.074369
766.389667,0.188636,0.074230
766.423264,-0.320455,0.073671
766.456860,0.481818,0.166205
766.490457,0.090909,0.085038
766.524053,0.310606,0.185683
766.557648,0.686364,0.430518
766.591244,0.345455,0.085280
766.624839,0.111364,0.230889
766.658434,0.215909,0.095583
766.692029,0.231818,0.067535
766.725623,0.031061,0.018568
766.759217,-0.165909,0.077298
766.792811,0.309091,0.342511
766.826405,-0.052273,0.107967
766.859999,0.163636,0.050206
766.893592,0.202273,0.135237
766.927185,0.390909,0.229399
766.960777,0.056818,0.430433
766.994370,0.211364,0.088804
767.027962,0.293182,0.219889
767.061554,0.496970,0.209387
767.095146,0.372727,0.085401
767.128737,-0.155303,0.066988
767.162329,-0.206818,0.057977
767.195920,0.138636,0.067831
767.229510,0.418182,0.092932
767.263101,0.156818,0.197227
767.296691,0.161364,0.112741
767.330281,0.036364,0.284518
767.363871,-0.261364,0.134816
767.397460,0.047727,0.051363
767.431050,0.275000,0.131754
767.464639,0.111364,0.104663
767.498227,0.254545,0.116952
767.531816,0.225000,0.131950
767.565404,-0.397727,0.063014
767.598992,0.370455,0.042321
767.632580,0.459091,0.234906
767.666168,0.113636,0.126029
767.699755,0.138636,0.148872
767.733342,0.140909,0.025206
767.766929,0.138636,0.021651
767.800515,0.086364,0.138674
767.834101,0.045455,0.050820
767.867687,-0.070455,0.038081
767.901273,0.125000,0.155291
767.934859,-0.463636,0.052421
767.968444,0.275000,0.319484
768.002029,0.497727,0.311875
768.035614,0.225000,0.302970
768.069198,0.022727,0.103528
768.102783,-0.425000,0.130296
768.136367,0.061364,0.174671
768.169950,0.310606,0.188445
768.203534,-0.190909,0.070857
768.237117,0.124242,0.037206
768.270700,0.304545,0.069939
768.304283,0.002273,0.056625
768.337866,-0.217424,0.049311
768.371448,-0.113636,0.037689
768.405030,-0.190909,0.063147
768.438612,0.047727,0.051363
768.472193,0.090909,0.071870
768.505775,-0.054545,0.120089
768.539356,0.370455,0.053142
768.572936,0.250000,0.269632
768.606517,-0.159091,0.081153
768.640097,-0.120455,0.071392
768.673677,-0.090909,0.071870
768.707257,0.186364,0.140156
768.740836,0.186364,0.032381
768.774416,0.347727,0.057350
768.807995,0.155303,0.018844
768.841574,0.225000,0.115233
768.875152,0.327273,0.053397
768.908730,0.204545,0.171210
768.942308,-0.047727,0.082282
768.975886,0.597727,0.310764
769.009464,0.341667,0.019911
769.043041,0.002273,0.102165
769.076618,0.211364,0.025587
769.110195,0.020455,0.075404
769.143771,0.281818,0.075103
769.177348,0.293182,0.189616
769.210924,-0.002273,0.033767
769.244499,0.347727,0.201194
769.278075,0.284091,0.065031
769.311650,0.263636,0.216709
769.345225,0.138636,0.050347
769.378800,0.520455,0.380373
769.412375,0.088636,0.073320
769.445949,-0.120455,0.096068
769.479523,0.002273,0.033767
769.513097,0.343182,0.140482
769.546670,-0.027273,0.069976
769.580243,-0.002273,0.147653
769.613816,0.386364,0.289940
769.647389,-0.277273,0.043301
769.680962,0.341667,0.093064
769.714534,-0.070455,0.049832
769.748106,0.155303,0.080953
769.781678,0.479545,0.169935
769.815249,0.190909,0.115261
769.848820,-0.397727,0.063014
769.882391,0.000000,0.032141
769.915962,0.111364,0.082596
769.949533,0.270455,0.168255
769.983103,0.050000,0.070528
770.016673,0.200000,0.259609
770.050243,0.245455,0.148477
770.083812,-0.341667,0.019911
770.117381,0.043182,0.123037
770.150950,0.229545,0.103422
770.184519,-0.163636,0.081565
770.218088,0.000000,0.064282
770.251656,0.029545,0.092228
770.285224,-0.163636,0.038569
770.318791,0.109091,0.157590
770.352359,0.124242,0.066959
770.385926,0.252273,0.112282
770.419493,0.047727,0.068588
770.453060,-0.354545,0.077806
770.486626,-0.031061,0.092786
770.520192,0.086364,0.142350
770.553758,0.295455,0.255871
770.587324,0.062121,0.049114
770.620890,0.738636,0.204782
770.654455,0.609091,0.175869
770.688020,0.302273,0.037119
770.721584,0.131818,0.179574
770.755149,0.018182,0.089995
770.788713,0.159091,0.113067
770.822277,0.213636,0.125041
770.855841,-0.536364,0.026112
770.889404,0.138636,0.122195
770.922967,0.065909,0.138445
770.956530,0.022727,0.037689
770.990093,0.040909,0.096504
771.023655,0.322727,0.133357
771.057217,0.431818,0.288153
771.090779,0.093182,0.032201
771.124341,0.100000,0.213830
771.157902,0.168182,0.092793
771.191463,0.795455,0.218879
771.225024,1.000000,0.321412
771.258585,-0.045455,0.068182
771.292145,0.090909,0.045455
771.325705,0.322727,0.092123
771.359265,0.002273,0.056625
771.392825,0.025000,0.067831
771.426384,0.143182,0.147233
771.459943,0.340909,0.223549
771.493502,-0.050000,0.095427
771.527061,0.095455,0.035428
771.560619,-0.077273,0.135356
771.594177,0.340909,0.171210
771.627735,0.145455,0.142150
771.661293,0.586364,0.115954
771.694850,-0.211364,0.041082
771.728407,0.213636,0.125041
771.761964,0.163636,0.081565
771.795521,0.086364,0.142350
771.829077,0.045455,0.022727
771.862633,0.186364,0.032381
771.896189,0.209091,0.098228
771.929744,0.334091,0.435313
771.963300,0.131818,0.107637
771.996855,0.570455,0.278080
772.030409,0.086364,0.099664
772.063964,0.390909,0.285569
772.097518,-0.009091,0.153000
772.131072,-0.163636,0.074966
772.164626,0.118182,0.142077
772.198180,0.265909,0.302936
772.231733,0.070455,0.020423
772.265286,0.113636,0.126029
772.298839,0.031061,0.133816
772.332391,0.945455,0.411558
772.365943,0.465909,0.140446
772.399495,0.452273,0.162635
772.433047,0.090909,0.078730
772.466598,0.015909,0.182905
772.500150,0.188636,0.098195
772.533701,0.229545,0.174138
772.567251,-0.168182,0.066920
772.600802,-0.062121,0.066920
772.634352,0.204545,0.158685
772.667902,0.213636,0.111965
772.701452,-0.077273,0.119118
772.735001,0.045455,0.149033
772.768550,0.156818,0.104909
772.802099,0.029545,0.176729
772.835648,0.434091,0.160718
772.869196,0.070455,0.020423
772.902744,0.088636,0.112282
772.936292,0.284091,0.072541
772.969840,0.579545,0.184200
773.003387,0.155303,0.037258
773.036934,0.345455,0.272803
773.070481,0.388636,0.124705
773.104028,0.138636,0.134279
773.137574,0.002273,0.033767
773.171120,0.461364,0.249863
773.204666,0.413636,0.090994
773.238212,0.070455,0.152133
773.271757,0.270455,0.216575
773.305302,0.095455,0.047835
773.338847,0.186364,0.085129
773.372391,0.272727,0.085038
773.405936,-0.077273,0.094993
773.439480,0.165909,0.077298
773.473024,0.277273,0.077506
773.506567,0.350000,0.051174
773.540110,0.000000,0.032141
773.573653,0.124242,0.080930
773.607196,0.572727,0.207155
773.640739,0.065909,0.088337
773.674281,-0.068182,0.141476
773.707823,0.093182,0.055705
773.741365,0.504545,0.175501
773.774906,0.302273,0.158550
773.808447,0.511364,0.103372
773.841988,0.190909,0.090110
773.875529,-0.062121,0.018603
773.909070,-0.155303,0.037258
773.942610,0.036364,0.158636
773.976150,-0.004545,0.098622
774.009689,0.120455,0.143502
774.043229,0.286364,0.239090
774.076768,0.186364,0.096504
774.110307,-0.165909,0.062521
774.143845,0.675000,0.134009
774.177384,1.218182,0.838239
774.210922,1.295455,0.595589
774.244460,0.459091,0.237095
774.277997,0.341667,0.067295
774.311535,0.575000,0.333145
774.345072,0.254545,0.066183
774.378609,0.036364,0.209190
774.412145,0.045455,0.122390
774.445682,0.200000,0.140982
774.479218,0.062121,0.037137
774.512754,0.768182,0.273512
774.546289,0.090909,0.167011
774.579824,0.018182,0.105822
774.613359,0.181818,0.154144
774.646894,0.268182,0.248996
774.680429,-0.062121,0.018603
774.713963,0.270455,0.113198
774.747497,0.256818,0.050654
774.781031,0.579545,0.210381
774.814564,-0.168182,0.161779
774.848097,0.361364,0.290169
774.881630,0.540909,0.214204
774.915163,0.290909,0.155611
774.948696,0.045455,0.099066
774.982228,0.124242,0.080930
775.015760,-0.004545,0.087522
775.049291,0.131818,0.154863
775.082823,-0.248485,0.049376
775.116354,0.070455,0.038081
775.149885,0.436364,0.296048
775.183416,-0.065909,0.051363
775.216946,-0.403788,0.049832
775.250476,0.225000,0.105889
775.284006,0.097727,0.061269
775.317535,-0.054545,0.208200
775.351065,0.040909,0.124545
775.384594,0.052273,0.073881
775.418123,0.211364,0.041082
775.451651,0.156818,0.099864
775.485180,-0.420455,0.077698
775.518708,-0.025000,0.113426
775.552235,-0.031061,0.049101
775.585763,-0.231818,0.049948
775.619290,0.370455,0.197436
775.652817,0.550000,0.366769
775.686344,0.150000,0.166189
775.719870,0.250000,0.243458
775.753397,0.531818,0.181064
775.786923,0.177273,0.172533
775.820448,-0.209091,0.066959
775.853974,0.322727,0.151491
775.887499,0.252273,0.121133
775.921024,0.525000,0.299627
775.954549,0.310606,0.257882
775.988073,0.365909,0.235540
776.021597,0.813636,0.350936
776.055121,-0.022727,0.049533
776.088645,0.300000,0.102348
776.122168,-0.354545,0.095671
776.155691,0.252273,0.140850
776.189214,-0.093182,0.055705
776.222737,0.388636,0.154324
776.256259,-0.281818,0.081692
776.289781,0.297727,0.102418
776.323303,0.040909,0.078828
776.356824,0.186364,0.140156
776.390346,0.090909,0.078730
776.423867,0.256818,0.022355
776.457387,-0.327273,0.070124
776.490908,0.436364,0.175575
776.524428,0.159091,0.171210
776.557948,-0.025000,0.087751
776.591468,0.063636,0.143524
776.624987,0.420455,0.084083
776.658506,0.181818,0.184637
776.692025,0.070455,0.098563
776.725544,0.106818,0.260490
776.759062,0.336364,0.260205
776.792581,-0.140909,0.051975
776.826099,0.213636,0.065358
776.859616,0.322727,0.121181
776.893134,0.115909,0.049311
776.926651,0.310606,0.081153
776.960167,-0.006818,0.143502
776.993684,0.248485,0.049376
777.027200,0.422727,0.082165
777.060716,0.000000,0.055670
777.094232,0.065909,0.068588
777.127748,-0.031061,0.018568
777.161263,0.343182,0.190432
777.194778,0.217424,0.049311
777.228293,0.161364,0.066679
777.261807,0.211364,0.041082
777.295322,0.279545,0.032679
777.328836,-0.320455,0.102921
777.362349,0.018182,0.160191
777.395863,0.659091,0.495199
777.429376,-0.045455,0.039365
777.462889,-0.095455,0.035428
777.496401,0.395455,0.196390
777.529914,0.279545,0.085242
777.563426,0.406818,0.332555
777.596938,0.915909,0.303107
777.630449,0.363636,0.170075
777.663961,0.090909,0.101639
777.697472,0.681818,0.266016
777.730983,0.695455,0.339748
777.764493,0.581818,0.098333
777.798004,2.072727,0.576431
777.831514,1.150000,0.304469
777.865023,0.770455,0.263977
777.898533,0.613636,0.237007
777.932042,0.204545,0.130063
777.965551,0.206818,0.057977
777.999060,-0.002273,0.107102
778.032568,0.065909,0.060591
778.066076,0.543182,0.304416
778.099584,0.272727,0.195507
778.133092,0.179545,0.141216
778.166599,0.310606,0.113067
778.200107,0.134091,0.095095
778.233613,0.272727,0.136364
778.267120,-0.050000,0.205339
778.300626,0.709091,0.245286
778.334132,-0.231818,0.049948
778.367638,0.315909,0.281953
778.401144,0.088636,0.057530
778.434649,0.179545,0.086863
778.468154,0.068182,0.019682
778.501659,0.040909,0.124545
778.535163,0.115909,0.049311
778.568668,0.159091,0.067228
778.602172,0.179545,0.179829
778.635675,-0.302273,0.129899
778.669179,0.686364,0.432911
778.702682,0.093182,0.111358
778.736185,0.040909,0.078828
778.769688,0.118182,0.088257
778.803190,0.015909,0.121899
778.836692,0.161364,0.112741
778.870194,0.188636,0.125860
778.903696,0.488636,0.133855
778.937197,0.256818,0.068059
778.970698,0.509091,0.203177
779.004199,0.211364,0.061269
779.037699,0.293182,0.283506
779.071200,0.143182,0.055519
779.104700,0.306818,0.161807
779.138199,-0.002273,0.046619
779.171699,0.227273,0.207055
779.205198,0.111364,0.104663
779.238697,0.163636,0.050206
779.272196,0.140909,0.051975
779.305694,-0.047727,0.122617
779.339192,-0.002273,0.046619
779.372690,0.595455,0.406068
779.406188,0.545455,0.248965
779.439685,0.593182,0.392273
779.473182,-0.093182,0.085060
779.506679,0.372727,0.170257
779.540176,0.970455,0.193472
779.573672,1.584091,0.046396
779.607168,2.718182,0.364856
779.640664,2.081061,0.324934
779.674160,1.027273,0.110128
779.707655,0.097727,0.076289
779.741150,0.124242,0.103353
779.774644,0.363636,0.115887
779.808139,0.528030,0.122195
779.841633,0.062121,0.092793
779.875127,0.213636,0.072834
779.908621,0.281818,0.103951
779.942114,-0.168182,0.129904
779.975607,0.506818,0.205261
780.009100,-0.006818,0.153922
780.042593,0.155303,0.066988
780.076085,-0.045455,0.050820
780.109577,0.181818,0.140100
780.143069,0.518182,0.127516
780.176560,0.043182,0.052359
780.210052,0.161364,0.148351
780.243543,0.350000,0.130697
780.277033,0.025000,0.067831
780.310524,-0.217424,0.019117
780.344014,0.018182,0.105822
780.377504,0.065909,0.068588
780.410994,-0.120455,0.055052
780.444483,0.809091,0.128001
780.477972,0.111364,0.082596
780.511461,0.302273,0.112878
780.544950,-0.163636,0.050206
780.578438,0.186364,0.003936
780.611926,0.118182,0.118269
780.645414,-0.004545,0.087522
780.678902,0.438636,0.354842
780.712389,0.136364,0.118094
780.745876,0.272727,0.101639
780.779363,0.254545,0.035791
780.812849,0.347727,0.179484
780.846335,-0.031061,0.018568
780.879821,0.227273,0.099066
780.913307,0.025000,0.021651
780.946792,0.347727,0.034970
780.980277,0.040909,0.101716
781.013762,-0.093182,0.032201
781.047247,0.456818,0.241816
781.080731,0.934091,0.142127
781.114215,0.613636,0.209227
781.147699,0.140909,0.082666
781.181183,0.070455,0.038081
781.214666,-0.029545,0.125449
781.248149,0.248485,0.049376
781.281632,0.188636,0.087041
781.315114,0.640909,0.301537
781.348596,0.984091,0.208506
781.382078,1.459848,0.137321
781.415560,5.040909,0.986068
781.449041,2.328030,0.378967
781.482522,1.832576,0.330576
781.516003,0.920455,0.152776
781.549484,0.325000,0.165094
781.582964,0.161364,0.017714
781.616444,0.543182,0.246261
781.649924,0.165909,0.077298
781.683404,0.206818,0.102921
781.716883,0.829545,0.555861
781.750362,0.502273,0.316642
781.783841,0.343182,0.140482
781.817319,0.177273,0.119464
781.850797,0.106818,0.212433
781.884275,0.236364,0.057135
781.917753,0.365909,0.114559
781.951230,0.045455,0.068182
781.984707,0.124242,0.037206
782.018184,0.093182,0.096444
782.051661,0.068182,0.087286
782.085137,0.190909,0.095671
782.118613,0.438636,0.169722
782.152089,0.279545,0.064553
782.185564,0.155303,0.092842
782.219040,0.350000,0.152578
782.252515,0.661364,0.248453
782.285989,0.609091,0.329569
782.319464,0.093182,0.032201
782.352938,0.341667,0.093064
782.386412,0.138636,0.021651
782.419885,0.511364,0.343691
782.453359,0.006818,0.106279
782.486832,0.159091,0.059047
782.520305,0.161364,0.066679
782.553777,0.156818,0.104909
782.587249,0.093182,0.222690
782.620721,-0.302273,0.232516
782.654193,0.572727,0.130716
782.687665,0.297727,0.112051
782.721136,0.002273,0.033767
782.754607,0.002273,0.085666
782.788077,0.181818,0.160706
782.821548,0.161364,0.086863
782.855018,-0.004545,0.117722
782.888488,0.284091,0.116304
782.921957,0.306818,0.098248
782.955427,-0.050000,0.123712
782.988896,0.252273,0.154825
783.022365,0.279545,0.116037
783.055833,0.090909,0.136364
783.089301,0.124242,0.037206
783.122769,0.155303,0.066988
783.156237,0.768182,0.177258
783.189704,1.553030,0.499354
783.223172,5.743182,0.355714
783.256638,5.436364,0.927451
783.290105,5.886364,0.733197
783.323571,1.840909,0.758815
783.357037,0.502273,0.128781
783.390503,0.022727,0.158685
783.423969,0.136364,0.104149
783.457434,0.320455,0.144649
783.490899,0.072727,0.061322
783.524364,0.184091,0.030555
783.557828,0.527273,0.272045
783.591292,0.365909,0.114559
783.624756,-0.093182,0.055705
783.658220,0.411364,0.274904
783.691683,0.104545,0.168657
783.725146,0.404545,0.300851
783.758609,0.211364,0.131086
783.792072,0.320455,0.170844
783.825534,-0.022727,0.019682
783.858996,0.068182,0.067228
783.892458,0.661364,0.217646
783.925919,0.375000,0.165749
783.959381,0.418182,0.232575
783.992842,0.011364,0.203517
784.026302,0.345455,0.198236
784.059763,0.584091,0.340733
784.093223,0.320455,0.198792
784.126683,0.254545,0.035791
784.160142,0.538636,0.087633
784.193601,0.163636,0.093376
784.227060,0.155303,0.103372
784.260519,0.234091,0.131283
784.293978,0.254545,0.066183
784.327436,0.115909,0.121771
784.360894,-0.025000,0.021651
784.394352,0.181818,0.064282
784.427809,-0.100000,0.092375
784.461266,0.090909,0.032141
784.494723,0.372727,0.179128
784.528180,-0.025000,0.087751
784.561636,0.015909,0.121899
784.595092,0.179545,0.103172
784.628548,0.256818,0.081842
784.662003,0.275000,0.083837
784.695458,0.275000,0.083837
784.728913,0.804545,0.314155
784.762368,0.496970,0.038569
784.795823,0.529545,0.217004
784.829277,0.545455,0.263087
784.862731,0.320455,0.176788
784.896184,0.156818,0.197227
784.929637,0.113636,0.137777
784.963091,0.595455,0.186350
784.996543,1.025000,0.059732
785.029996,2.731818,0.457959
785.063448,3.438636,0.357742
785.096900,8.044697,0.265596
785.130352,5.897727,0.614556
785.163803,2.736364,0.421357
785.197254,1.963636,0.472771
785.230705,0.095455,0.086334
785.264156,0.615909,0.235759
785.297606,0.227273,0.223838
785.331056,0.161364,0.058421
785.364506,0.304545,0.119118
785.397955,0.020455,0.039414
785.431405,0.200000,0.133454
785.464854,-0.286364,0.096075
785.498302,0.315909,0.329277
785.531751,-0.031061,0.018568
785.565199,0.179545,0.125736
785.598647,0.095455,0.206343
785.632094,-0.095455,0.035428
785.665542,0.113636,0.081153
785.698989,-0.140909,0.051975
785.732436,0.522727,0.237007
785.765882,-0.093182,0.032201
785.799328,0.161364,0.058421
785.832774,0.138636,0.075060
785.866220,0.254545,0.140982
785.899665,0.284091,0.128941
785.933111,0.256818,0.098981
785.966555,-0.136364,0.050820
786.000000,0.062121,0.049114
786.033444,0.297727,0.129181
786.066888,0.354545,0.077806
786.100332,0.440909,0.097144
786.133776,0.254545,0.015746
786.167219,-0.118182,0.023619
786.200662,0.095455,0.035428
786.234104,0.186364,0.085129
786.267547,-0.310606,0.019682
786.300989,0.156818,0.169020
786.334431,0.145455,0.075788
786.367872,0.093182,0.064313
786.401314,0.022727,0.067228
786.434755,-0.040909,0.071978
786.468196,1.072727,0.109658
786.501636,-0.025000,0.038753
786.535076,-0.186364,0.128625
786.568516,0.163636,0.050206
786.601956,1.015909,0.555201
786.635395,0.188636,0.037119
786.668834,0.456818,0.266217
786.702273,-0.072727,0.168978
786.735712,-0.002273,0.046619
786.769150,0.186364,0.032381
786.802588,0.172727,0.185920
786.836026,0.988636,0.202244
786.869463,3.238636,0.501901
786.902900,10.179545,0.687404
786.936337,12.956818,0.516018
786.969774,13.793182,1.575954
787.003210,7.184091,0.545458
787.036646,2.050000,0.452056
787.070082,0.697727,0.074230
787.103518,0.222727,0.234906
787.136953,-0.093182,0.055705
787.170388,0.248485,0.049376
787.203823,0.861364,0.273585
787.237257,-0.047727,0.068588
787.270691,0.002273,0.079407
787.304125,0.113636,0.074516
787.337559,0.124242,0.066959
787.370992,-0.190909,0.135832
787.404425,0.120455,0.071392
787.437858,0.217424,0.049311
787.471290,-0.372727,0.111618
787.504723,0.118182,0.039886
787.538155,0.372727,0.222820
787.571586,0.093182,0.032201
787.605018,0.063636,0.166825
787.638449,0.179545,0.161679
787.671880,-0.045455,0.050820
787.705310,0.093182,0.032201
787.738741,0.318182,0.138245
787.772171,0.275000,0.053819
787.805600,-0.120455,0.115591
787.839030,0.352273,0.140446
787.872459,0.918182,0.250330
787.905888,0.248485,0.049376
787.939317,0.434091,0.195517
787.972745,0.109091,0.181932
788.006173,0.231818,0.049948
788.039601,0.186364,0.032381
788.073028,0.027273,0.062158
788.106456,0.202273,0.089210
788.139883,0.184091,0.244577
788.173309,0.159091,0.087286
788.206736,0.155303,0.148490
788.240162,0.341667,0.113107
788.273588,0.254545,0.086483
788.307013,0.470455,0.122743
788.340439,0.354545,0.095671
788.373864,-0.020455,0.039414
788.407288,0.297727,0.065506
788.440713,0.772727,0.367170
788.474137,-0.002273,0.046619
788.507561,0.931818,0.365584
788.540985,0.138636,0.067831
788.574408,0.062121,0.049114
788.607831,0.368182,0.069048
788.641254,0.479545,0.143574
788.674677,0.622727,0.148460
788.708099,3.293182,0.763855
788.741521,8.790152,1.041843
788.774943,14.258333,0.589290
788.808364,24.351515,1.378869
788.841785,18.538636,0.489279
788.875206,5.177273,0.445379
788.908627,1.995455,0.604063
788.942047,0.827273,0.259250
788.975467,0.734091,0.315793
789.008887,0.140909,0.186350
789.042306,0.122727,0.104323
789.075726,0.250000,0.133975
789.109145,0.068182,0.067228
789.142563,0.843182,0.597476
789.175982,0.372727,0.064763
789.209400,0.447727,0.120835
789.242817,0.186364,0.032381
789.276235,0.500000,0.214409
789.309652,0.370455,0.159848
789.343069,-0.093182,0.111358
789.376486,0.350000,0.113795
789.409902,0.138636,0.038753
789.443319,0.275000,0.070445
789.476735,-0.029545,0.092228
789.510150,0.118182,0.088257
789.543565,0.406818,0.242775
789.576980,-0.031818,0.208138
789.610395,0.229545,0.121771
789.643810,0.279545,0.128700
789.677224,-0.279545,0.116037
789.710638,0.217424,0.151963
789.744052,0.343182,0.215858
789.777465,-0.217424,0.037397
789.810878,0.063636,0.078335
789.844291,0.165909,0.139301
789.877703,0.168182,0.074239
789.911116,0.209091,0.066959
789.944528,0.528030,0.165313
789.977939,0.165909,0.053626
790.011351,-0.161364,0.086863
790.044762,0.275000,0.070445
790.078173,0.168182,0.074239
790.111583,0.434848,0.074793
790.144994,0.118182,0.088257
790.178404,-0.031061,0.018568
790.211813,-0.586364,0.170121
790.245223,0.120455,0.071392
790.278632,0.754545,0.471436
790.312041,0.138636,0.021651
790.345450,0.131818,0.116841
790.378858,0.320455,0.117012
790.412266,0.209091,0.049167
790.445674,0.538636,0.087633
790.479081,0.070455,0.049832
790.512488,0.681818,0.145526
790.545895,1.177273,0.207840
790.579302,4.713636,0.396179
790.612708,12.331061,0.383012
790.646115,24.761364,0.943849
790.679520,32.456818,1.851151
790.712926,22.688636,0.973610
790.746331,6.831818,0.478176
790.779736,1.479545,0.308210
790.813141,0.854545,0.162496
790.846545,0.000000,0.085038
790.879949,-0.050000,0.095427
790.913353,0.545455,0.178955
790.946757,-0.061364,0.188057
790.980160,0.247727,0.114784
791.013563,0.304545,0.119118
791.046966,-0.002273,0.033767
791.080368,0.297727,0.079732
791.113771,-0.140909,0.040846
791.147173,0.163636,0.021320
791.180574,0.143182,0.078623
791.213976,0.297727,0.102418
791.247377,-0.140909,0.069048
791.280777,0.365909,0.094823
791.314178,0.318182,0.122390
791.347578,0.000000,0.032141
791.380978,0.186364,0.055809
791.414378,0.156818,0.142490
791.447777,0.079545,0.269093
791.481176,0.186364,0.085129
791.514575,0.502273,0.132731
791.547973,0.459091,0.237095
791.581372,0.248485,0.081057
791.614770,0.552273,0.236481
791.648167,0.225000,0.160235
791.681565,0.559091,0.056909
791.714962,0.534091,0.170360
791.748359,0.722727,0.215166
791.781755,0.477273,0.310583
791.815152,0.456818,0.214658
791.848548,0.720455,0.340202
791.881943,0.279545,0.096604
791.915339,0.022727,0.130063
791.948734,0.447727,0.136869
791.982129,0.093182,0.032201
792.015523,0.684091,0.261025
792.048918,0.111364,0.104663
792.082312,-0.004545,0.134129
792.115705,0.000000,0.032141
792.149099,0.138636,0.021651
792.182492,0.272727,0.167011
792.215885,0.088636,0.243094
792.249278,0.022727,0.049533
792.282670,0.168182,0.108211
792.316062,0.393182,0.032679
792.349454,0.297727,0.085966
792.382845,0.656818,0.303567
792.416236,1.338636,0.217646
792.449627,5.525000,0.727985
792.483018,15.577273,0.938906
792.516408,29.379545,0.938658
792.549798,39.159091,2.546545
792.583188,25.966667,1.201557
792.616578,8.463636,0.698774
792.649967,1.461364,0.388940
792.683356,0.807576,0.040846
792.716745,0.413636,0.111410
792.750133,0.225000,0.153653
792.783521,0.388636,0.338711
792.816909,0.254545,0.112448
792.850296,0.243182,0.173484
792.883684,0.109091,0.111526
792.917071,0.022727,0.049533
792.950457,0.155303,0.049206
792.983844,-0.215909,0.095583
793.017230,0.486364,0.147061
793.050616,0.068182,0.059047
793.084001,0.136364,0.118094
793.117386,0.062121,0.080898
793.150771,0.403788,0.152133
793.184156,0.236364,0.120947
793.217541,0.047727,0.040064
793.250925,0.068182,0.059047
793.284309,0.554545,0.263597
793.317692,0.211364,0.088804
793.351075,0.638636,0.279099
793.384458,0.247727,0.149910
793.417841,0.454545,0.160706
793.451223,0.647727,0.085605
793.484606,0.725000,0.327626
793.517988,0.847727,0.361548
793.551369,0.248485,0.121798
793.584750,0.493182,0.062521
793.618131,0.138636,0.050347
793.651512,0.063636,0.101334
793.684893,0.493182,0.212676
793.718273,0.063636,0.106309
793.751653,0.090909,0.078730
793.785032,0.338636,0.207936
793.818411,0.325000,0.081208
793.851790,0.047727,0.122617
793.885169,0.297727,0.311875
793.918548,0.161364,0.141216
793.951926,0.254545,0.057854
793.985304,0.256818,0.130494
794.018681,0.738636,0.130929
794.052059,0.186364,0.170121
794.085436,0.413636,0.115954
794.118812,0.248485,0.103453
794.152189,0.284091,0.079342
794.185565,0.252273,0.065899
794.218941,0.286364,0.111038
794.252317,0.388636,0.128781
794.285692,1.011364,0.508293
794.319067,4.876515,0.698732
794.352442,17.052273,0.783734
794.385816,47.457576,0.964954
794.419190,74.522727,3.491042
794.452564,60.293182,2.585082
794.485938,26.429545,1.079990
794.519311,4.162121,0.150120
794.552684,1.956818,0.183666
794.586057,-0.124242,0.080930
794.619429,0.186364,0.115954
794.652802,0.188636,0.074230
794.686173,0.329545,0.125901
794.719545,0.062121,0.080898
794.752916,-0.095455,0.211290
794.786287,-0.288636,0.154089
794.819658,0.290909,0.180220
794.853029,0.511364,0.291661
794.886399,0.217424,0.019117
794.919769,0.236364,0.125145
794.953138,0.534091,0.251224
794.986508,-0.211364,0.162730
795.019877,0.115909,0.074369
795.053245,0.252273,0.151452
795.086614,0.022727,0.049533
795.119982,0.325000,0.074577
795.153350,0.084091,0.116924
795.186718,0.018182,0.070711
795.220085,0.365909,0.186596
795.253452,0.688636,0.179484
795.286819,0.310606,0.074516
795.320185,0.759091,0.277859
795.353551,0.670455,0.074299
795.386917,1.025000,0.425739
795.420283,0.402273,0.118023
795.453648,0.038636,0.109392
795.487013,0.456818,0.292121
795.520378,0.156818,0.149565
795.553742,-0.020455,0.050858
795.587107,0.000000,0.170075
795.620471,-0.062121,0.092793
795.653834,0.163636,0.021320
795.687197,0.386364,0.209227
795.720560,0.156818,0.104909
795.753923,0.093182,0.032201
795.787286,0.377273,0.103328
795.820648,0.352273,0.085605
795.854010,0.334091,0.238655
795.887371,0.877273,0.273739
795.920733,0.068182,0.098412
795.954094,0.252273,0.164530
795.987454,0.556818,0.145858
796.020815,0.465909,0.140446
796.054175,0.415909,0.046396
796.087535,0.852273,0.164969
796.120894,0.528030,0.122195
796.154254,0.552273,0.111959
796.187613,3.845455,0.362413
796.220971,12.377273,1.599953
796.254330,40.565909,1.671901
796.287688,99.743182,2.662543
796.321046,155.085606,4.711935
796.354403,99.275000,2.211891
796.387761,29.556818,1.556310
796.421118,8.602273,0.870691
796.454474,1.336364,0.261788
796.487831,0.936364,0.258612
796.521187,0.248485,0.049376
796.554543,0.370455,0.069930
796.587898,0.156818,0.104909
796.621254,0.234091,0.076627
796.654609,0.075000,0.091384
796.687963,0.186364,0.064403
796.721318,-0.218182,0.139213
796.754672,-0.104545,0.164314
796.788026,0.750000,0.245570
796.821379,0.522727,0.452695
796.854732,0.500000,0.235093
796.888085,0.443182,0.149357
796.921438,0.186364,0.115954
796.954790,0.000000,0.032141
796.988142,0.000000,0.032141
797.021494,0.331818,0.102323
797.054846,-0.009091,0.138841
797.088197,0.004545,0.059396
797.121548,0.250000,0.074516
797.154899,0.418182,0.204192
797.188249,0.665909,0.332679
797.221599,0.310606,0.037689
797.254949,1.115909,0.214056
797.288298,0.145455,0.082322
797.321648,0.488636,0.188359
797.354996,0.059091,0.201582
797.388345,0.350000,0.237356
797.421693,0.165909,0.062521
797.455041,0.272727,0.096424
797.488389,0.279545,0.147408
797.521737,0.477273,0.201685
797.555084,0.217424,0.133893
797.588431,-0.186364,0.032381
797.621777,0.124242,0.112907
797.655124,0.031061,0.049101
797.688470,0.188636,0.074230
797.721815,0.254545,0.066183
797.755161,0.236364,0.176514
797.788506,0.486364,0.136117
797.821851,0.093182,0.001968
797.855196,0.640909,0.446537
797.888540,0.370455,0.100277
797.921884,0.270455,0.223615
797.955228,0.186364,0.055809
797.988571,0.393182,0.085242
798.021914,0.629545,0.053142
798.055257,0.627273,0.128806
798.088599,4.204545,0.796023
798.121942,12.768182,0.279490
798.155284,51.538636,3.033769
798.188625,113.868182,2.655264
798.221967,164.403788,3.635739
798.255308,96.474242,2.915124
798.288649,24.320455,0.897916
798.321989,3.571970,0.207911
798.355329,1.677273,0.182428
798.388669,0.043182,0.165936
798.422009,0.588636,0.236525
798.455348,0.297727,0.102418
798.488687,0.234091,0.083095
798.522026,0.440909,0.147762
798.555365,0.395455,0.325143
798.588703,-0.031061,0.049101
798.622041,0.159091,0.171210
798.655378,0.297727,0.065506
798.688716,0.179545,0.103172
798.722053,0.484091,0.100277
798.755389,0.363636,0.167011
798.788726,0.379545,0.256292
798.822062,0.004545,0.059396
798.855398,0.256818,0.050654
798.888733,0.304545,0.202604
798.922069,0.000000,0.085038
798.955404,0.252273,0.182396
798.988738,0.300000,0.102348
799.022073,0.279545,0.032679
799.055407,0.248485,0.019285
799.088741,0.270455,0.117673
799.122074,0.868182,0.420565
799.155408,0.372727,0.085401
799.188741,0.528030,0.021651
799.222073,0.093182,0.032201
799.255406,0.113636,0.037689
799.288738,0.403788,0.067449
799.322069,0.248485,0.092932
799.355401,0.206818,0.133507
799.388732,0.138636,0.050347
799.422063,0.377273,0.066920
799.455394,0.040909,0.120326
799.488724,0.250000,0.141476
799.522054,0.052273,0.097932
799.555384,0.345455,0.101843
799.588713,0.729545,0.148699
799.622042,-0.227273,0.068182
799.655371,0.040909,0.071978
799.688700,-0.002273,0.056625
799.722028,0.390909,0.203126
799.755356,0.470455,0.149323
799.788684,0.411364,0.225341
799.822011,0.065909,0.113880
799.855338,0.763636,0.107373
799.888665,1.238636,0.438753
799.921992,0.465909,0.161007
799.955318,0.962879,0.178185
799.988644,2.826515,0.062521
800.021969,17.713636,1.732568
800.055295,77.154545,2.494444
800.088620,176.300000,6.064626
800.121945,268.021970,6.080315
800.155269,190.587879,6.305665
800.188593,60.475000,1.441527
800.221917,8.759091,0.678123
800.255241,1.252273,0.596221
800.288564,0.825000,0.286100
800.321887,0.559091,0.056909
800.355210,-0.122727,0.088227
800.388532,0.418182,0.081057
800.421854,0.047727,0.051363
800.455176,0.072727,0.061322
800.488498,0.496970,0.328470
800.521819,0.263636,0.185920
800.555140,-0.420455,0.115188
800.588461,0.621212,0.315737
800.621781,0.363636,0.124482
800.655101,0.313636,0.217078
800.688421,0.081818,0.170257
800.721740,0.363636,0.195507
800.755060,0.300000,0.079643
800.788379,0.186364,0.064403
800.821697,0.229545,0.067065
800.855015,0.062121,0.037137
800.888334,0.050000,0.070528
800.921651,0.209091,0.103353
800.954969,0.179545,0.086863
800.988286,0.390909,0.111062
801.021603,0.302273,0.112878
801.054919,0.434848,0.291787
801.088235,0.434848,0.081407
801.121551,0.565909,0.222921
801.154867,0.229545,0.074369
801.188183,0.186364,0.055809
801.221498,0.400000,0.075788
801.254812,1.325000,0.591856
801.288127,0.062121,0.066920
801.321441,0.525000,0.220123
801.354755,0.621212,0.122390
801.388069,0.320455,0.102921
801.421382,-0.356818,0.314646
801.454695,0.522727,0.257882
801.488008,0.675000,0.269649
801.521320,0.138636,0.134279
801.554632,0.559091,0.193209
801.587944,0.236364,0.079772
801.621256,0.425000,0.093341
801.654567,0.496970,0.145312
801.687878,0.043182,0.183666
801.721189,0.318182,0.159091
801.754499,0.300000,0.179358
801.787809,0.390909,0.078335
801.821119,1.409091,0.298931
801.854428,0.496970,0.103851
801.887737,2.267424,0.183385
801.921046,7.937879,0.809679
801.954355,40.872727,1.725466
801.987663,131.140909,2.850840
802.020971,281.688636,6.173916
802.054279,307.220455,4.069525
802.087586,142.927273,5.350971
802.120894,26.432576,1.239870
802.154200,5.047727,0.577339
802.187507,2.488636,0.686607
802.220813,0.838636,0.211507
802.254119,0.940909,0.329248
802.287425,0.800000,0.243171
802.320730,0.556818,0.162603
802.354035,-0.015909,0.380414
802.387340,0.341667,0.098458
802.420644,0.715909,0.222898
802.453949,0.175000,0.214490
802.487252,0.525000,0.195253
802.520556,0.368182,0.114158
802.553859,0.217424,0.067065
802.587162,0.275000,0.089787
802.620465,0.113636,0.037689
802.653767,-0.143182,0.078623
802.687069,0.643182,0.339898
802.720371,0.481818,0.217850
802.753673,0.438636,0.101047
802.786974,0.725000,0.123665
802.820275,0.468182,0.169269
802.853576,0.395455,0.098202
802.886876,0.411364,0.102418
802.920176,0.540909,0.182993
802.953476,0.222727,0.253926
802.986775,1.154545,0.173503
803.020074,2.031818,0.245907
803.053373,0.293182,0.135618
803.086672,0.159091,0.191166
803.119970,0.313636,0.162671
803.153268,0.386364,0.188445
803.186565,0.425000,0.113335
803.219863,0.062121,0.066920
803.253160,0.561364,0.157077
803.286457,0.231818,0.098622
803.319753,0.402273,0.130494
803.353049,0.265909,0.229160
803.386345,0.320455,0.121346
803.419641,0.670455,0.282667
803.452936,-0.031061,0.018568
803.486231,0.561364,0.128097
803.519525,1.159091,0.500387
803.552820,0.040909,0.132580
803.586114,0.397727,0.070738
803.619408,0.436364,0.119572
803.652701,0.847727,0.162413
803.685994,0.300000,0.034317
803.719287,0.590152,0.196781
803.752580,0.590152,0.113562
803.785872,1.829545,0.200963
803.819164,2.609091,0.414036
803.852456,15.320455,1.131834
803.885747,54.821970,2.407878
803.919038,181.225000,6.511842
803.952329,363.531818,4.083116
803.985620,385.306818,10.229866
804.018910,151.917424,4.193756
804.052200,26.990909,0.812137
804.085489,5.118182,0.528467
804.118779,1.954545,0.547817
804.152068,1.273485,0.381701
804.185357,0.745455,0.225539
804.218645,0.963636,0.255032
804.251933,1.006818,0.256997
804.285221,0.559091,0.097144
804.318508,0.572727,0.283025
804.351796,1.149242,0.408969
804.385083,0.411364,0.161200
804.418369,-0.062121,0.080898
804.451656,0.621212,0.104149
804.484942,-0.124242,0.103353
804.518227,0.711364,0.314892
804.551513,0.229545,0.092897
804.584798,0.365909,0.285141
804.618083,0.527273,0.127110
804.651367,0.188636,0.049101
804.684652,0.256818,0.022355
804.717936,0.020455,0.104168
804.751219,0.804545,0.260195
804.784503,0.629545,0.268401
804.817786,0.525000,0.200474
804.851068,0.465909,0.033614
804.884351,1.179545,0.185485
804.917633,0.621212,0.214409
804.950915,0.954545,0.165457
804.984196,0.900758,0.131283
805.017478,0.403788,0.158778
805.050759,0.020455,0.088044
805.084039,0.434091,0.176056
805.117320,0.279545,0.179052
805.150600,0.217424,0.019117
805.183879,0.500000,0.219174
805.217159,0.204545,0.087286
805.250438,1.215909,0.594694
805.283717,0.090909,0.085038
805.316995,0.463636,0.069383
805.350274,0.877273,0.152578
805.383552,0.795455,0.204230
805.416829,0.579545,0.135770
805.450107,0.434848,0.074793
805.483384,0.365909,0.114559
805.516660,1.084091,0.170784
805.549937,0.915909,0.189970
805.583213,0.636364,0.195507
805.616489,0.434848,0.148738
805.649764,0.915909,0.242520
805.683040,1.447727,0.405838
805.716315,1.125000,0.313840
805.749589,3.758333,0.087633
805.782864,18.447727,0.668687
805.816138,81.838636,4.417787
805.849411,325.704545,2.882043
805.882685,632.725000,16.057828
805.915958,759.134091,13.010873
805.949231,344.372727,7.959626
805.982504,55.609091,1.345462
806.015776,8.013636,0.464366
806.049048,1.586364,0.240984
806.082319,0.997727,0.161039
806.115591,0.217424,0.067065
806.148862,0.129545,0.150357
806.182133,0.411364,0.274904
806.215403,0.554545,0.167813
806.248673,0.186364,0.032381
806.281943,0.545455,0.274615
806.315213,0.511364,0.232538
806.348482,0.888636,0.361505
806.381751,0.752273,0.295723
806.415019,0.440909,0.371693
806.448288,0.802273,0.219606
806.481556,0.529545,0.194405
806.514823,0.534091,0.111775
806.548091,0.609091,0.084672
806.581358,0.279545,0.005905
806.614625,0.620455,0.125654
806.647891,0.529545,0.270032
806.681158,0.500000,0.331694
806.714424,0.256818,0.122322
806.747689,1.527273,0.558407
806.780955,0.465909,0.085605
806.814220,0.706818,0.166403
806.847484,1.593182,0.732900
806.880749,0.931818,0.098412
806.914013,0.790909,0.273370
806.947277,0.543182,0.356034
806.980540,0.345455,0.136515
807.013803,0.652273,0.167578
807.047066,0.438636,0.169722
807.080329,0.534091,0.147618
807.113591,0.531818,0.163051
807.146853,0.552273,0.091666
807.180115,0.000000,0.055670
807.213376,0.579545,0.084083
807.246637,0.788636,0.069188
807.279898,1.553030,0.462850
807.313159,0.602273,0.163395
807.346419,1.143182,0.345699
807.379679,0.459091,0.137927
807.412938,0.611364,0.229880
807.446198,1.379545,0.372871
807.479457,1.056818,0.277131
807.512715,0.690909,0.185084
807.545974,1.856818,0.908115
807.579232,0.838636,0.086863
807.612490,1.200000,0.216184
807.645747,2.050000,0.475446
807.679004,3.400000,0.134687
807.712261,12.797727,1.608411
807.745518,60.606818,1.384437
807.778774,309.543182,5.330503
807.812030,810.464394,19.571009
807.845285,1078.543182,16.878834
807.878541,776.639394,17.393428
807.911796,180.896970,6.247747
807.945051,19.661364,1.725763
807.978305,2.578030,0.294936
808.011559,0.422727,0.109162
808.044813,0.700000,0.261393
808.078066,0.217424,0.112970
808.111320,0.434848,0.081407
808.144573,0.965909,0.389484
808.177825,0.397727,0.100842
808.211078,0.461364,0.183046
808.244330,1.170455,0.199674
808.277581,0.621212,0.081944
808.310833,0.888636,0.088629
808.344084,0.654545,0.085280
808.377335,0.341667,0.130098
808.410585,0.406818,0.218120
808.443835,0.640909,0.366487
808.477085,0.027273,0.069976
808.510335,0.084091,0.151554
808.543584,0.800000,0.205905
808.576833,-0.031061,0.049101
808.610082,0.496970,0.050206
808.643330,-0.015909,0.362333
808.676578,1.120455,0.262957
808.709826,0.865909,0.175321
808.743073,0.620455,0.300282
808.776320,1.250000,0.529477
808.809567,1.697727,0.900891
808.842814,2.615909,0.868826
808.876060,0.993939,0.135451
808.909306,0.390909,0.063798
808.942552,0.272727,0.115887
808.975797,0.434848,0.158815
809.009042,0.343182,0.072612
809.042287,0.822727,0.317881
809.075531,0.468182,0.210114
809.108775,0.300000,0.034317
809.142019,0.686364,0.211779
809.175262,1.029545,0.270700
809.208506,0.403788,0.049832
809.241748,0.697727,0.080890
809.274991,0.559091,0.140597
809.308233,0.831818,0.206643
809.341475,1.118182,0.307516
809.374717,0.909091,0.417836
809.407958,1.109091,0.198236
809.441199,0.445455,0.121373
809.474440,1.152273,0.290756
809.507680,1.102273,0.330279
809.540921,1.784091,0.344442
809.574160,2.472727,0.146022
809.607400,1.811364,0.291643
809.640639,4.721212,0.795104
809.673878,15.136364,0.576306
809.707117,72.029545,3.006146
809.740355,333.615909,8.893853
809.773593,865.379545,22.839142
809.806831,1074.603788,23.767827
809.840068,582.572727,12.849138
809.873305,94.365909,2.492220
809.906542,12.975000,0.907074
809.939778,5.865909,0.641661
809.973015,2.043182,0.344307
810.006250,3.745455,0.584263
810.039486,3.059091,0.721665
810.072721,2.950758,0.102115
810.105956,1.677273,0.318531
810.139191,1.493182,0.595336
810.172425,1.961364,0.343601
810.205659,1.179545,0.167947
810.238893,0.861364,0.269783
810.272126,0.736364,0.235005
810.305359,0.979545,0.216813
810.338592,0.875000,0.364833
810.371825,1.402273,0.440445
810.405057,0.775000,0.163427
810.438289,0.354545,0.077806
810.471520,0.763636,0.338873
810.504751,1.377273,0.074239
810.537982,0.504545,0.205339
810.571213,0.520455,0.287576
810.604443,0.693182,0.286298
810.637673,0.225000,0.119632
810.670903,0.797727,0.142671
810.704133,0.559091,0.034242
810.737362,0.895455,0.468132
810.770591,2.068182,0.403209
810.803819,0.543182,0.217289
810.837047,0.922727,0.246326
810.870275,1.536364,0.285786
810.903503,0.496970,0.214264
810.936730,0.018182,0.153607
810.969957,0.652273,0.034970
811.003184,0.238636,0.100842
811.036410,0.341667,0.037809
811.069636,0.868182,0.278379
811.102862,0.884091,0.391614
811.136087,0.747727,0.457156
811.169312,1.181818,0.405285
811.202537,0.790909,0.428022
811.235762,0.807576,0.069048
811.268986,0.618182,0.228271
811.302210,0.379545,0.207264
811.335433,1.125000,0.325157
811.368656,1.090909,0.190150
811.401879,2.290909,0.689832
811.435102,1.034091,0.499839
811.468324,0.722727,0.427629
811.501546,1.152273,0.427048
811.534768,-0.629545,0.178185
811.567990,2.418182,0.830687
811.601211,2.152273,0.477634
811.634432,9.473485,0.463652
811.667652,59.481061,2.562916
811.700872,244.390909,6.476016
811.734092,578.565909,12.378325
811.767312,835.778788,17.711469
811.800531,488.490152,11.640183
811.833750,84.857576,2.159990
811.866969,8.262121,0.749528
811.900187,3.297727,0.824504
811.933405,0.403788,0.049832
811.966623,0.186364,0.147342
811.999840,1.384091,0.495750
812.033057,1.006818,0.264914
812.066274,0.752273,0.163111
812.099490,0.776515,0.082533
812.132707,0.936364,0.169893
812.165923,0.588636,0.170542
812.199138,0.097727,0.069188
812.232353,0.375000,0.099553
812.265568,0.411364,0.161200
812.298783,0.475000,0.229318
812.331997,0.062121,0.066920
812.365211,0.284091,0.355874
812.398425,0.486364,0.132268
812.431638,0.222727,0.177258
812.464851,0.138636,0.067831
812.498064,0.031061,0.049101
812.531277,0.238636,0.207911
812.564489,0.279545,0.085242
812.597701,0.320455,0.112511
812.630912,0.254545,0.140982
812.664123,0.338636,0.260827
