#{
#    "background_file": "Backgrounds\\\\bg_785.995nm_13bin_219st_244en_10.0s_110g_4x_13_seq.txt",
#    "ccd_image_settings": [
#        1,
#        13,
#        1,
#        1600,
#        219,
#        244
#    ],
#    "ccd_temperature": "-87",
#    "cdRatios": {
#        "mean": 0.946224630307788,
#        "std": 0.012821541510039627
#    },
#    "center_lambda": 786.0,
#    "comments": "",
#    "dark_region": 68.27926042646311,
#    "date": "10/22/20 18:05:32PM",
#    "eff_field": 1.5,
#    "exposure": 10.0,
#    "fel_lambda": "15.0",
#    "fel_pol": "H",
#    "fel_pulses": 43,
#    "fel_pyro_cal": "0.012",
#    "fel_reprate": "1.07",
#    "fel_transmission": "1.0",
#    "fel_transmission_fits": {
#        "A": 1.0,
#        "C": 0.0,
#        "Mu": 0.0
#    },
#    "fieldInt": {
#        "mean": 4907.214231060605,
#        "std": 352.63234756755423
#    },
#    "fieldStrength": {
#        "mean": 32.11497159090909,
#        "std": 1.194117225802453
#    },
#    "fpTime": {
#        "mean": 1.093961197407008,
#        "std": 0.07969955809040516
#    },
#    "gain": 110,
#    "grating": 3,
#    "images_in_sequence": [
#        "hsg_820nm_c123_a00_HAna581.txt",
#        "hsg_820nm_c123_a00_HAna582.txt",
#        "hsg_820nm_c123_a00_HAna583.txt",
#        "hsg_820nm_c123_a00_HAna584.txt"
#    ],
#    "nir_lambda": "819.98",
#    "nir_pola": "00",
#    "nir_polg": "0",
#    "nir_power": "100.0",
#    "pulseEnergies": {
#        "mean": 1.4988333333333335,
#        "std": 0.11758922145907864
#    },
#    "pyroVoltage": {
#        "mean": 0.1321278701816255,
#        "std": 0.011412625954965934
#    },
#    "rotatorAngle": 292.49999633788167,
#    "sample_Temp": "55",
#    "sample_name": "L001218.C1",
#    "series": "820_Fan",
#    "slits": "60",
#    "spec_step": "",
#    "window_trans": 0.92,
#    "y_max": 2,
#    "y_min": 1
#}
#
#
#
#
#
#
#
#
#
#
#
#
#
#
#
#
#
#
#
#
#
#
#
#
#
#
Wavelength,Signal,error
nm,arb. u.,arb.u.
Wavelength,820_Fan,error
759.194366,0.045455,0.130558
759.228015,-0.088636,0.092059
759.261663,0.325000,0.019911
759.295311,0.434848,0.145224
759.328959,0.413636,0.143794
759.362607,0.136364,0.093707
759.396254,0.340909,0.431669
759.429901,0.250000,0.081153
759.463548,0.093182,0.032201
759.497194,0.031818,0.175854
759.530841,0.793182,0.227849
759.564487,0.450000,0.208831
759.598133,-0.113636,0.059047
759.631779,-0.186364,0.096504
759.665424,0.329545,0.177050
759.699069,-0.043182,0.041333
759.732714,0.120455,0.055052
759.766359,0.277273,0.131799
759.800003,0.481818,0.205151
759.833648,-0.165909,0.062521
759.867292,0.250000,0.098412
759.900935,0.227273,0.165457
759.934579,0.259091,0.090539
759.968222,0.213636,0.154596
760.001865,0.072727,0.162750
760.035508,0.568182,0.364169
760.069151,0.309091,0.157983
760.102793,0.217424,0.185624
760.136435,-0.248485,0.019285
760.170077,0.106818,0.127288
760.203718,-0.031061,0.037119
760.237360,-0.528030,0.050347
760.271001,0.247727,0.246366
760.304642,0.159091,0.165066
760.338283,-0.217424,0.049311
760.371923,0.113636,0.049533
760.405563,0.217424,0.103422
760.439203,-0.093182,0.032201
760.472843,0.238636,0.100842
760.506482,0.202273,0.149737
760.540122,0.434091,0.150769
760.573761,0.368182,0.168902
760.607399,0.095455,0.047835
760.641038,0.086364,0.189101
760.674676,0.145455,0.082322
760.708314,0.575000,0.228256
760.741952,0.211364,0.142418
760.775589,-0.118182,0.039886
760.809227,-0.004545,0.113249
760.842864,0.238636,0.123832
760.876501,-0.234091,0.052654
760.910137,0.140909,0.082666
760.943774,0.356818,0.110566
760.977410,-0.118182,0.023619
761.011046,0.031061,0.049101
761.044681,0.231818,0.177258
761.078317,0.322727,0.133357
761.111952,0.022727,0.037689
761.145587,-0.229545,0.049311
761.179221,0.284091,0.072541
761.212856,-0.206818,0.206440
761.246490,0.403788,0.049832
761.280124,0.138636,0.075060
761.313758,0.570455,0.441698
761.347391,0.118182,0.039886
761.381024,-0.310606,0.098412
761.414657,-0.234091,0.041706
761.448290,0.062121,0.080898
761.481923,0.095455,0.107637
761.515555,0.370455,0.083405
761.549187,-0.217424,0.019117
761.582819,0.186364,0.225023
761.616450,0.270455,0.155491
761.650082,0.134091,0.358996
761.683713,0.122727,0.113795
761.717344,-0.015909,0.113107
761.750974,-0.297727,0.065506
761.784605,-0.403788,0.020423
761.818235,0.297727,0.157963
761.851865,0.124242,0.049167
761.885494,-0.145455,0.082322
761.919124,0.025000,0.087751
761.952753,0.088636,0.185206
761.986382,0.115909,0.019117
762.020010,0.163636,0.098753
762.053639,0.275000,0.115009
762.087267,0.379545,0.107967
762.120895,0.070455,0.049832
762.154523,-0.034091,0.153619
762.188150,-0.234091,0.026577
762.221777,0.543182,0.207563
762.255404,0.252273,0.107583
762.289031,0.545455,0.446520
762.322658,-0.068182,0.037689
762.356284,0.090909,0.085038
762.389910,-0.372727,0.056224
762.423536,0.002273,0.046619
762.457161,-0.072727,0.076331
762.490786,0.463636,0.165956
762.524411,0.043182,0.069337
762.558036,-0.062121,0.018603
762.591661,0.043182,0.094551
762.625285,-0.422727,0.082165
762.658909,-0.027273,0.062158
762.692533,0.115909,0.081017
762.726157,0.234091,0.159686
762.759780,-0.209091,0.049167
762.793403,0.300000,0.102348
762.827026,0.111364,0.180689
762.860649,0.261364,0.076018
762.894271,-0.022727,0.081153
762.927893,0.248485,0.037483
762.961515,0.145455,0.082322
762.995137,0.075000,0.091384
763.028758,0.263636,0.138095
763.062379,-0.217424,0.019117
763.096000,0.522727,0.171210
763.129621,0.111364,0.068963
763.163241,0.250000,0.121861
763.196862,0.122727,0.109162
763.230481,0.775000,0.187010
763.264101,-0.062121,0.098202
763.297721,0.159091,0.245570
763.331340,0.111364,0.152810
763.364959,0.668182,0.318401
763.398578,-0.470455,0.270032
763.432196,0.088636,0.154825
763.465814,0.020455,0.075404
763.499432,0.248485,0.112998
763.533050,0.279545,0.064553
763.566668,0.277273,0.219915
763.600285,-0.088636,0.057530
763.633902,0.697727,0.133816
763.667519,0.259091,0.044710
763.701135,-0.025000,0.038753
763.734752,0.288636,0.187369
763.768368,0.393182,0.072112
763.801984,0.236364,0.125145
763.835599,0.909091,0.659483
763.869215,0.259091,0.111038
763.902830,0.068182,0.117546
763.936444,0.072727,0.061322
763.970059,-0.093182,0.032201
764.003673,0.229545,0.067065
764.037288,0.415909,0.072469
764.070901,-0.095455,0.245233
764.104515,-0.115909,0.037397
764.138128,0.159091,0.087286
764.171742,-0.025000,0.098824
764.205354,0.090909,0.136364
764.238967,0.504545,0.381405
764.272580,-0.145455,0.149241
764.306192,0.093182,0.032201
764.339804,0.368182,0.168902
764.373415,0.031061,0.066910
764.407027,0.113636,0.037689
764.440638,-0.045455,0.050820
764.474249,0.022727,0.113067
764.507860,-0.277273,0.043301
764.541470,0.315909,0.278265
764.575080,0.138636,0.050347
764.608690,0.004545,0.059396
764.642300,-0.277273,0.083906
764.675909,0.043182,0.094551
764.709519,0.140909,0.051975
764.743128,0.109091,0.096638
764.776736,0.775000,0.317782
764.810345,0.113636,0.103528
764.843953,-0.115909,0.019117
764.877561,0.390909,0.128324
764.911169,1.100000,0.307045
764.944776,0.263636,0.126377
764.978384,0.454545,0.244780
765.011991,0.025000,0.059732
765.045598,0.496970,0.098753
765.079204,0.047727,0.051363
765.112810,0.020455,0.088044
765.146416,0.068182,0.019682
765.180022,0.554545,0.201390
765.213628,0.093182,0.064313
765.247233,0.390909,0.208150
765.280838,0.211364,0.025587
765.314443,0.400000,0.239576
765.348048,0.565909,0.150769
765.381652,0.168182,0.117370
765.415256,0.113636,0.103528
765.448860,0.097727,0.069188
765.482463,-0.038636,0.138557
765.516067,0.161364,0.112741
765.549670,0.204545,0.232608
765.583273,0.345455,0.064603
765.616875,0.250000,0.206743
765.650478,0.081818,0.203431
765.684080,0.297727,0.129181
765.717682,0.118182,0.088257
765.751283,-0.002273,0.033767
765.784885,-0.031061,0.080890
765.818486,0.138636,0.038753
765.852087,0.159091,0.067228
765.885687,0.209091,0.158571
765.919288,0.436364,0.235839
765.952888,0.177273,0.290723
765.986488,0.025000,0.038753
766.020087,-0.027273,0.095021
766.053687,0.025000,0.059732
766.087286,0.100000,0.102952
766.120885,0.068182,0.067228
766.154484,0.211364,0.061269
766.188082,0.231818,0.020706
766.221680,0.045455,0.122390
766.255278,-0.062121,0.049114
766.288876,0.168182,0.092793
766.322473,0.031061,0.066910
766.356070,0.259091,0.055064
766.389667,0.184091,0.124082
766.423264,1.038636,0.690014
766.456860,0.477273,0.201685
766.490457,0.304545,0.142784
766.524053,0.310606,0.081153
766.557648,0.093182,0.085060
766.591244,0.095455,0.057631
766.624839,-0.310606,0.019682
766.658434,-0.062121,0.098202
766.692029,0.217424,0.049311
766.725623,0.159091,0.121861
766.759217,-0.063636,0.084672
766.792811,-0.300000,0.047019
766.826405,-0.186364,0.055809
766.859999,0.093182,0.064313
766.893592,0.168182,0.074239
766.927185,-0.093182,0.001968
766.960777,-0.345455,0.056040
766.994370,0.113636,0.087286
767.027962,-0.062121,0.018603
767.061554,0.006818,0.119977
767.095146,0.700000,0.282294
767.128737,0.418182,0.343716
767.162329,0.134091,0.123456
767.195920,0.131818,0.133357
767.229510,0.327273,0.131583
767.263101,-0.090909,0.045455
767.296691,0.072727,0.052223
767.330281,-0.186364,0.170121
767.363871,0.470455,0.099502
767.397460,0.209091,0.018741
767.431050,0.643182,0.366232
767.464639,0.248485,0.067113
767.498227,0.161364,0.036699
767.531816,0.248485,0.081057
767.565404,-0.443182,0.082533
767.598992,0.045455,0.068182
767.632580,0.206818,0.080377
767.666168,-0.047727,0.023918
767.699755,0.188636,0.125860
767.733342,0.502273,0.411676
767.766929,-0.045455,0.039365
767.800515,0.213636,0.056909
767.834101,0.320455,0.102921
767.867687,0.018182,0.070711
767.901273,-0.155303,0.037258
767.934859,-0.714394,0.104416
767.968444,-0.015909,0.158713
768.002029,0.231818,0.177258
768.035614,0.025000,0.141763
768.069198,-0.031061,0.037119
768.102783,-0.579545,0.029524
768.136367,0.097727,0.076289
768.169950,0.006818,0.101302
768.203534,0.281818,0.087787
768.237117,0.206818,0.073671
768.270700,0.209091,0.112907
768.304283,0.238636,0.077698
768.337866,-0.248485,0.019285
768.371448,-0.025000,0.038753
768.405030,-0.063636,0.111062
768.438612,0.075000,0.072469
768.472193,0.111364,0.088629
768.505775,0.179545,0.151793
768.539356,0.325000,0.121899
768.572936,0.068182,0.059047
768.606517,-0.097727,0.134969
768.640097,0.179545,0.086863
768.673677,0.609091,0.439689
768.707257,0.040909,0.101716
768.740836,0.502273,0.227395
768.774416,0.248485,0.098333
768.807995,0.372727,0.111618
768.841574,0.217424,0.133893
768.875152,0.300000,0.085884
768.908730,0.459091,0.290011
768.942308,0.381818,0.446103
768.975886,0.136364,0.171587
769.009464,0.254545,0.035791
769.043041,0.340909,0.218879
769.076618,0.445455,0.080417
769.110195,0.434091,0.280208
769.143771,0.020455,0.081968
769.177348,-0.140909,0.051975
769.210924,-0.186364,0.064403
769.244499,0.325000,0.049624
769.278075,0.279545,0.055982
769.311650,0.528030,0.204429
769.345225,0.325000,0.261875
769.378800,0.411364,0.136945
769.412375,0.186364,0.032381
769.445949,-0.155303,0.037258
769.479523,-0.065909,0.051363
769.513097,-0.124242,0.037206
769.546670,0.093182,0.032201
769.580243,-0.002273,0.079407
769.613816,0.168182,0.074239
769.647389,-0.231818,0.038233
769.680962,0.284091,0.120663
769.714534,0.136364,0.174571
769.748106,0.140909,0.051975
769.781678,0.115909,0.037397
769.815249,-0.025000,0.059732
769.848820,-0.370455,0.027532
769.882391,0.000000,0.085038
769.915962,0.095455,0.047835
769.949533,0.000000,0.064282
769.983103,0.395455,0.112884
770.016673,0.068182,0.037689
770.050243,0.115909,0.074369
770.083812,-0.068182,0.059047
770.117381,0.138636,0.075060
770.150950,0.186364,0.064403
770.184519,0.124242,0.121713
770.218088,0.031061,0.066910
770.251656,0.088636,0.185206
770.285224,0.050000,0.053926
770.318791,-0.002273,0.056625
770.352359,0.261364,0.076018
770.385926,0.163636,0.098753
770.419493,0.155303,0.103372
770.453060,-0.275000,0.139375
770.486626,-0.040909,0.078828
770.520192,0.006818,0.106279
770.553758,0.454545,0.384353
770.587324,0.600000,0.168734
770.620890,0.190909,0.077806
770.654455,0.600000,0.250124
770.688020,0.438636,0.077963
770.721584,-0.093182,0.064313
770.755149,0.318182,0.305764
770.788713,0.217424,0.081017
770.822277,0.272727,0.150756
770.855841,-0.470455,0.075950
770.889404,0.111364,0.104663
770.922967,-0.204545,0.087286
770.956530,0.186364,0.064403
770.990093,0.211364,0.131086
771.023655,-0.018182,0.070711
771.057217,0.045455,0.068182
771.090779,0.334091,0.216646
771.124341,-0.113636,0.137777
771.157902,0.347727,0.147933
771.191463,0.350000,0.130697
771.225024,0.165909,0.089672
771.258585,0.025000,0.141763
771.292145,0.193182,0.104613
771.325705,0.461364,0.093341
771.359265,0.050000,0.166438
771.392825,0.248485,0.092932
771.426384,0.159091,0.067228
771.459943,0.070455,0.020423
771.493502,0.161364,0.112741
771.527061,0.115909,0.019117
771.560619,-0.236364,0.057135
771.594177,0.143182,0.229498
771.627735,0.340909,0.193849
771.661293,0.776515,0.207289
771.694850,-0.438636,0.044114
771.728407,0.040909,0.106673
771.761964,0.390909,0.175869
771.795521,0.097727,0.061269
771.829077,0.190909,0.095671
771.862633,-0.062121,0.049114
771.896189,0.050000,0.053926
771.929744,0.122727,0.104323
771.963300,0.372727,0.170257
771.996855,-0.043182,0.069337
772.030409,0.252273,0.137133
772.063964,0.184091,0.178677
772.097518,-0.063636,0.128324
772.131072,-0.279545,0.055982
772.164626,0.052273,0.097932
772.198180,0.140909,0.069048
772.231733,0.161364,0.117233
772.265286,-0.070455,0.113198
772.298839,-0.236364,0.057135
772.332391,0.572727,0.416027
772.365943,0.875000,0.334552
772.399495,0.731818,0.283891
772.433047,0.093182,0.147303
772.466598,0.045455,0.099066
772.500150,0.295455,0.214107
772.533701,0.136364,0.093707
772.567251,-0.161364,0.017714
772.600802,-0.120455,0.055052
772.634352,0.115909,0.049311
772.667902,0.161364,0.141216
772.701452,-0.050000,0.077506
772.735001,0.088636,0.073320
772.768550,0.275000,0.139375
772.802099,0.429545,0.471232
772.835648,0.261364,0.088571
772.869196,-0.025000,0.059732
772.902744,0.156818,0.123037
772.936292,0.070455,0.067449
772.969840,0.168182,0.074239
773.003387,0.211364,0.041082
773.036934,0.593182,0.354944
773.070481,0.045455,0.022727
773.104028,0.027273,0.069976
773.137574,0.047727,0.051363
773.171120,0.145455,0.149241
773.204666,0.097727,0.134969
773.238212,-0.047727,0.051363
773.271757,0.147727,0.129939
773.305302,0.118182,0.088257
773.338847,0.225000,0.175615
773.372391,0.065909,0.068588
773.405936,0.043182,0.094551
773.439480,0.124242,0.112907
773.473024,0.586364,0.227307
773.506567,0.404545,0.171933
773.540110,0.138636,0.183103
773.573653,0.159091,0.049533
773.607196,0.302273,0.018568
773.640739,0.050000,0.119464
773.674281,-0.206818,0.035989
773.707823,0.070455,0.049832
773.741365,0.143182,0.078623
773.774906,0.427273,0.216900
773.808447,-0.093182,0.032201
773.841988,0.281818,0.087787
773.875529,-0.093182,0.096444
773.909070,0.059091,0.196390
773.942610,0.072727,0.104841
773.976150,0.136364,0.145526
774.009689,0.256818,0.098981
774.043229,-0.165909,0.150013
774.076768,0.186364,0.085129
774.110307,0.088636,0.211263
774.143845,0.625000,0.168837
774.177384,0.575000,0.249863
774.210922,-0.031061,0.074230
774.244460,0.411364,0.232116
774.277997,0.284091,0.120663
774.311535,0.000000,0.055670
774.345072,-0.138636,0.038753
774.378609,0.206818,0.086565
774.412145,0.029545,0.080249
774.445682,-0.093182,0.064313
774.479218,0.275000,0.266605
774.512754,0.093182,0.085060
774.546289,0.068182,0.087286
774.579824,-0.304545,0.062117
774.613359,-0.031061,0.080890
774.646894,0.184091,0.160396
774.680429,0.004545,0.074793
774.713963,0.463636,0.099897
774.747497,0.002273,0.033767
774.781031,0.209091,0.037206
774.814564,0.020455,0.109014
774.848097,-0.031061,0.018568
774.881630,0.279545,0.085242
774.915163,0.254545,0.112448
774.948696,0.256818,0.317343
774.982228,0.120455,0.055052
775.015760,-0.027273,0.062158
775.049291,0.190909,0.119659
775.082823,0.179545,0.343631
775.116354,0.068182,0.113067
775.149885,0.477273,0.243458
775.183416,0.000000,0.140100
775.216946,-0.097727,0.114243
775.250476,0.731818,0.294255
775.284006,0.097727,0.076289
775.317535,-0.327273,0.053397
775.351065,0.272727,0.244780
775.384594,0.000000,0.111340
775.418123,0.709091,0.323399
775.451651,-0.020455,0.039414
775.485180,-0.077273,0.317751
775.518708,0.022727,0.037689
775.552235,0.209091,0.144957
775.585763,-0.217424,0.081017
775.619290,0.234091,0.041706
775.652817,0.093182,0.032201
775.686344,0.124242,0.158571
775.719870,0.138636,0.122195
775.753397,0.138636,0.050347
775.786923,-0.090909,0.032141
775.820448,-0.138636,0.050347
775.853974,0.393182,0.106764
775.887499,0.229545,0.067065
775.921024,0.486364,0.178767
775.954549,0.807576,0.177840
775.988073,2.236364,0.079772
776.021597,1.163636,0.177331
776.055121,0.018182,0.127920
776.088645,0.109091,0.160835
776.122168,0.000000,0.096424
776.155691,0.161364,0.017714
776.189214,-0.090909,0.115887
776.222737,0.072727,0.041161
776.256259,-0.163636,0.067726
776.289781,0.163636,0.038569
776.323303,0.050000,0.053926
776.356824,0.204545,0.130063
776.390346,0.215909,0.084083
776.423867,0.095455,0.086334
776.457387,-0.372727,0.085401
776.490908,0.343182,0.079407
776.524428,0.090909,0.115887
776.557948,-0.256818,0.039151
776.591468,0.000000,0.064282
776.624987,0.254545,0.086483
776.658506,0.209091,0.158571
776.692025,-0.155303,0.018844
776.725544,-0.310606,0.019682
776.759062,0.295455,0.255871
776.792581,0.222727,0.185795
776.826099,0.256818,0.098981
776.859616,0.509091,0.090682
776.893134,0.120455,0.084634
776.926651,0.022727,0.019682
776.960167,0.063636,0.143524
776.993684,0.256818,0.081842
777.027200,0.381818,0.194022
777.060716,0.390909,0.128324
777.094232,0.000000,0.032141
777.127748,0.320455,0.144649
777.161263,0.156818,0.142490
777.194778,0.186364,0.115954
777.228293,0.165909,0.077298
777.261807,0.165909,0.077298
777.295322,0.188636,0.037119
777.328836,0.343182,0.242882
777.362349,0.122727,0.194275
777.395863,0.138636,0.038753
777.429376,0.063636,0.208150
777.462889,0.022727,0.145081
777.496401,0.368182,0.171933
777.529914,0.268182,0.143794
777.563426,-0.062121,0.037137
777.596938,0.534091,0.096925
777.630449,0.525000,0.272545
777.663961,0.341667,0.098458
777.697472,0.138636,0.067831
777.730983,0.776515,0.214634
777.764493,1.577273,0.374186
777.798004,1.561364,0.426261
777.831514,1.340909,0.539144
777.865023,0.850000,0.364679
777.898533,0.402273,0.155756
777.932042,0.204545,0.067228
777.965551,0.118182,0.088257
777.999060,-0.163636,0.165270
778.032568,0.861364,0.103920
778.066076,0.403788,0.121983
778.099584,0.143182,0.071753
778.133092,0.155303,0.148490
778.166599,0.062121,0.037137
778.200107,0.181818,0.132522
778.233613,0.402273,0.126474
778.267120,0.409091,0.360068
778.300626,0.465909,0.033614
778.334132,0.054545,0.120089
778.367638,0.000000,0.055670
778.401144,0.047727,0.122617
778.434649,0.206818,0.154992
778.468154,0.252273,0.112282
778.501659,0.020455,0.075404
778.535163,0.309091,0.116598
778.568668,0.963636,0.294509
778.602172,0.168182,0.092793
778.635675,-0.310606,0.049533
778.669179,0.306818,0.141362
778.702682,0.365909,0.210037
778.736185,0.368182,0.165816
778.769688,0.270455,0.145184
778.803190,0.293182,0.312950
778.836692,0.659091,0.477137
778.870194,0.155303,0.066988
778.903696,0.236364,0.173563
778.937197,0.368182,0.189101
778.970698,0.440909,0.179344
779.004199,0.329545,0.148490
779.037699,-0.062121,0.049114
779.071200,0.075000,0.072469
779.104700,0.204545,0.103528
779.138199,0.436364,0.205402
779.171699,0.254545,0.196140
779.205198,0.436364,0.146727
779.238697,0.062121,0.121692
779.272196,0.765909,0.402322
779.305694,-0.022727,0.019682
779.339192,0.018182,0.084060
779.372690,0.047727,0.023918
779.406188,0.093182,0.032201
779.439685,0.206818,0.289724
779.473182,0.200000,0.151576
779.506679,0.829545,0.377702
779.540176,2.195455,0.793787
779.573672,2.695455,0.584170
779.607168,3.293182,0.356034
779.640664,2.704545,0.261857
779.674160,0.838636,0.117233
779.707655,0.345455,0.327840
779.741150,0.097727,0.099761
779.774644,0.663636,0.337621
779.808139,0.402273,0.098981
779.841633,0.095455,0.125371
779.875127,0.031061,0.018568
779.908621,0.124242,0.049167
779.942114,-0.370455,0.053142
779.975607,0.209091,0.066959
780.009100,-0.054545,0.278277
780.042593,0.347727,0.065742
780.076085,0.000000,0.055670
780.109577,0.204545,0.152035
780.143069,0.256818,0.081842
780.176560,-0.113636,0.037689
780.210052,0.250000,0.165066
780.243543,0.179545,0.125736
780.277033,0.279545,0.170178
780.310524,-0.261364,0.109440
780.344014,-0.093182,0.001968
780.377504,0.045455,0.068182
780.410994,0.159091,0.137777
780.444483,0.527273,0.202362
780.477972,0.238636,0.077698
780.511461,0.281818,0.087787
780.544950,0.140909,0.069048
780.578438,0.163636,0.038569
780.611926,0.300000,0.116509
780.645414,-0.040909,0.078828
780.678902,0.193182,0.104613
780.712389,0.093182,0.055705
780.745876,0.272727,0.101639
780.779363,0.070455,0.049832
780.812849,-0.031061,0.074230
780.846335,-0.090909,0.085038
780.879821,0.093182,0.032201
780.913307,0.320455,0.218593
780.946792,0.881818,0.365817
780.980277,0.161364,0.036699
781.013762,0.134091,0.224422
781.047247,0.170455,0.116304
781.080731,0.115909,0.019117
781.114215,0.068182,0.059047
781.147699,0.368182,0.266239
781.181183,0.400000,0.142150
781.214666,0.190909,0.172667
781.248149,0.261364,0.109440
781.281632,0.165909,0.042927
781.315114,0.995455,0.247748
781.348596,1.695455,0.212558
781.382078,3.502273,1.003122
781.415560,4.856818,0.527825
781.449041,4.529545,0.431559
781.482522,1.315909,0.465719
781.516003,0.931818,0.148599
781.549484,0.890909,0.224621
781.582964,0.213636,0.056909
781.616444,0.186364,0.032381
781.649924,0.179545,0.086863
781.683404,-0.018182,0.084060
781.716883,0.229545,0.165000
781.750362,0.477273,0.177142
781.783841,0.072727,0.082822
781.817319,0.047727,0.082282
781.850797,0.272727,0.160706
781.884275,0.313636,0.199729
781.917753,0.300000,0.125062
781.951230,-0.020455,0.039414
781.984707,0.236364,0.097277
782.018184,0.611364,0.313527
782.051661,0.043182,0.052359
782.085137,0.320455,0.144649
782.118613,0.275000,0.123665
782.152089,0.393182,0.154257
782.185564,0.140909,0.076162
782.219040,0.277273,0.160110
782.252515,0.413636,0.157508
782.285989,0.138636,0.050347
782.319464,-0.002273,0.056625
782.352938,0.072727,0.076331
782.386412,0.297727,0.112051
782.419885,0.475000,0.314924
782.453359,0.609091,0.561451
782.486832,0.565909,0.195517
782.520305,0.327273,0.042640
782.553777,0.425000,0.298816
782.587249,-0.236364,0.073011
782.620721,-0.468182,0.169269
782.654193,0.163636,0.067726
782.687665,0.279545,0.032679
782.721136,0.217424,0.037397
782.754607,0.300000,0.102348
782.788077,-0.118182,0.039886
782.821548,0.496970,0.130321
782.855018,-0.155303,0.092842
782.888488,0.302273,0.018568
782.921957,0.161364,0.086863
782.955427,0.065909,0.165625
782.988896,0.345455,0.111526
783.022365,0.275000,0.237940
783.055833,0.204545,0.204230
783.089301,0.345455,0.120433
783.122769,0.840909,0.300439
783.156237,0.813636,0.147342
783.189704,1.631818,0.430758
783.223172,4.317424,1.062307
783.256638,6.740152,0.276403
783.290105,5.088636,1.146862
783.323571,1.956818,0.368650
783.357037,0.922727,0.233406
783.390503,0.277273,0.083906
783.423969,0.540909,0.165191
783.457434,0.163636,0.098753
783.490899,0.179545,0.125736
783.524364,0.422727,0.256194
783.557828,0.302273,0.066910
783.591292,0.372727,0.096745
783.624756,0.002273,0.072612
783.658220,-0.047727,0.051363
783.691683,0.129545,0.244535
783.725146,-0.279545,0.055982
783.758609,0.118182,0.039886
783.792072,0.200000,0.133454
783.825534,0.184091,0.106133
783.858996,0.295455,0.168166
783.892458,0.122727,0.093900
783.925919,0.190909,0.172667
783.959381,0.206818,0.107823
783.992842,0.270455,0.289991
784.026302,0.297727,0.151282
784.059763,-0.027273,0.114722
784.093223,0.254545,0.086483
784.126683,0.211364,0.041082
784.160142,0.350000,0.068446
784.193601,0.002273,0.072612
784.227060,0.304545,0.169269
784.260519,0.122727,0.093900
784.293978,0.184091,0.106133
784.327436,0.527273,0.134993
784.360894,0.275000,0.062686
784.394352,0.252273,0.190703
784.427809,0.027273,0.062158
784.461266,0.413636,0.257160
784.494723,0.259091,0.136117
784.528180,-0.118182,0.039886
784.561636,0.325000,0.098458
784.595092,0.161364,0.086863
784.628548,0.275000,0.110426
784.662003,0.238636,0.100842
784.695458,0.613636,0.273437
784.728913,0.481818,0.139138
784.762368,0.240909,0.123378
784.795823,0.234091,0.105057
784.829277,0.100000,0.107853
784.862731,0.531818,0.327360
784.896184,0.279545,0.032679
784.929637,-0.250000,0.087286
784.963091,1.061364,0.191594
784.996543,1.395455,0.214011
785.029996,2.422727,0.230735
785.063448,8.856818,1.036316
785.096900,9.459091,1.187406
785.130352,10.575000,1.483739
785.163803,3.259091,0.752774
785.197254,1.340909,0.336141
785.230705,0.338636,0.156979
785.264156,0.188636,0.058685
785.297606,0.347727,0.086147
785.331056,0.168182,0.087049
785.364506,0.665909,0.458093
785.397955,0.165909,0.105547
785.431405,0.427273,0.191611
785.464854,0.172727,0.348343
785.498302,-0.093182,0.064313
785.531751,-0.155303,0.018844
785.565199,0.097727,0.162730
785.598647,0.118182,0.226225
785.632094,-0.143182,0.096337
785.665542,0.181818,0.064282
785.698989,-0.163636,0.021320
785.732436,0.065909,0.088337
785.765882,0.065909,0.068588
785.799328,0.552273,0.091666
785.832774,0.097727,0.094441
785.866220,0.302273,0.066910
785.899665,-0.072727,0.134993
785.933111,0.000000,0.032141
785.966555,0.006818,0.119977
786.000000,0.248485,0.037483
786.033444,0.593182,0.314842
786.066888,0.163636,0.021320
786.100332,0.000000,0.064282
786.133776,0.272727,0.160706
786.167219,0.275000,0.083837
786.200662,0.403788,0.081335
786.234104,-0.155303,0.018844
786.267547,0.165909,0.169417
786.300989,0.302273,0.112878
786.334431,0.302273,0.018568
786.367872,0.490909,0.172966
786.401314,0.256818,0.039151
786.434755,0.100000,0.092375
786.468196,0.184091,0.054770
786.501636,0.227273,0.093707
786.535076,0.002273,0.072612
786.568516,0.163636,0.067726
786.601956,0.206818,0.117012
786.635395,0.161364,0.141216
786.668834,0.343182,0.096978
786.702273,-0.062121,0.066920
786.735712,0.350000,0.130697
786.769150,0.302273,0.112878
786.802588,0.088636,0.112282
786.836026,1.372727,0.413686
786.869463,5.062879,0.395486
786.902900,13.445455,1.187164
786.936337,15.511364,0.887728
786.969774,15.081818,1.158627
787.003210,7.370455,1.093621
787.036646,2.297727,0.208680
787.070082,1.418182,0.381602
787.103518,0.070455,0.130177
787.136953,-0.231818,0.038233
787.170388,0.284091,0.091440
787.203823,0.465909,0.116304
787.237257,0.352273,0.170360
787.270691,0.088636,0.112282
787.304125,0.390909,0.178781
787.337559,0.347727,0.140776
787.370992,-0.054545,0.139953
787.404425,0.484091,0.123373
787.437858,-0.027273,0.062158
787.471290,0.009091,0.321830
787.504723,0.004545,0.067535
787.538155,0.031061,0.018568
787.571586,0.277273,0.053926
787.605018,0.322727,0.073399
787.638449,0.124242,0.037206
787.671880,0.217424,0.037397
787.705310,0.420455,0.043643
787.738741,0.272727,0.167011
787.772171,0.250000,0.098412
787.805600,0.248485,0.067113
787.839030,0.527273,0.168978
787.872459,0.465909,0.085605
787.905888,0.445455,0.066339
787.939317,0.484091,0.083405
787.972745,0.093182,0.128580
788.006173,0.481818,0.156604
788.039601,0.093182,0.128580
788.073028,-0.155303,0.037258
788.106456,0.402273,0.087927
788.139883,0.513636,0.189973
788.173309,0.256818,0.068059
788.206736,0.070455,0.067449
788.240162,0.115909,0.019117
788.273588,0.181818,0.085038
788.307013,0.393182,0.055982
788.340439,-0.022727,0.049533
788.373864,0.340909,0.171210
788.407288,0.031061,0.037119
788.440713,0.165909,0.100534
788.474137,0.090909,0.101639
788.507561,0.254545,0.035791
788.540985,0.372727,0.116154
788.574408,0.211364,0.069188
788.607831,0.488636,0.241260
788.641254,0.911364,0.247307
788.674677,1.056061,0.135661
788.708099,2.920455,0.711544
788.741521,6.988636,0.707175
788.774943,22.815909,1.029424
788.808364,28.606818,1.941934
788.841785,15.665152,1.306796
788.875206,4.193182,0.670045
788.908627,1.906818,0.502066
788.942047,0.620455,0.271367
788.975467,0.847727,0.448291
789.008887,0.200000,0.190801
789.042306,-0.186364,0.032381
789.075726,0.272727,0.195507
789.109145,0.272727,0.184637
789.142563,0.236364,0.107373
789.175982,-0.186364,0.064403
789.209400,0.279545,0.096604
789.242817,0.248485,0.081057
789.276235,0.068182,0.037689
789.309652,0.206818,0.048252
789.343069,0.062121,0.080898
789.376486,0.493182,0.114919
789.409902,0.120455,0.084634
789.443319,0.211364,0.088804
789.476735,0.002273,0.079407
789.510150,0.213636,0.097144
789.543565,0.297727,0.157963
789.576980,-0.165909,0.062521
789.610395,0.022727,0.037689
789.643810,0.138636,0.098824
789.677224,0.072727,0.118705
789.710638,0.838636,0.289813
789.744052,0.590152,0.214370
789.777465,0.288636,0.273264
789.810878,0.027273,0.062158
789.844291,0.354545,0.135832
789.877703,0.345455,0.150893
789.911116,0.647727,0.167300
789.944528,0.647727,0.102115
789.977939,0.211364,0.069188
790.011351,0.029545,0.102821
790.044762,0.486364,0.153926
790.078173,0.683333,0.219256
790.111583,0.304545,0.062117
790.144994,0.193182,0.094222
790.178404,0.062121,0.066920
790.211813,-0.900758,0.041706
790.245223,-0.018182,0.070711
790.278632,0.584091,0.311759
790.312041,0.047727,0.023918
790.345450,0.031061,0.037119
790.378858,0.095455,0.073399
790.412266,0.268182,0.167057
790.445674,0.025000,0.087751
790.479081,0.143182,0.055519
790.512488,1.584091,0.280355
790.545895,1.211364,0.341112
790.579302,7.068182,0.835903
790.612708,17.921970,0.529164
790.646115,35.346970,1.881273
790.679520,40.356818,4.020767
790.712926,18.643182,0.869735
790.746331,7.206061,0.399845
790.779736,1.242424,0.362213
790.813141,0.159091,0.121861
790.846545,0.184091,0.166713
790.879949,0.395455,0.298645
790.913353,-0.065909,0.104416
790.946757,0.040909,0.178998
790.980160,0.075000,0.072469
791.013563,0.231818,0.038233
791.046966,0.227273,0.130558
791.080368,0.075000,0.116259
791.113771,0.050000,0.077506
791.147173,0.118182,0.060473
791.180574,0.165909,0.100534
791.213976,0.231818,0.049948
791.247377,0.256818,0.177458
791.280777,0.465909,0.116304
791.314178,0.159091,0.165066
791.347578,0.155303,0.098248
791.380978,0.122727,0.082165
791.414378,0.113636,0.074516
791.447777,-0.302273,0.018568
791.481176,0.136364,0.104149
791.514575,0.652273,0.116703
791.547973,0.327273,0.083567
791.581372,0.186364,0.085129
791.614770,0.434848,0.113249
791.648167,0.031061,0.080890
791.681565,0.434848,0.130222
791.714962,0.445455,0.107853
791.748359,0.602273,0.172619
791.781755,0.022727,0.037689
791.815152,0.211364,0.088804
791.848548,0.550000,0.188006
791.881943,0.288636,0.157406
791.915339,0.065909,0.138445
791.948734,0.124242,0.080930
791.982129,0.590152,0.152404
792.015523,0.138636,0.067831
792.048918,0.261364,0.088571
792.082312,0.361364,0.291944
792.115705,0.331818,0.091673
792.149099,0.597727,0.300626
792.182492,0.538636,0.122110
792.215885,-0.165909,0.105547
792.249278,0.434848,0.182993
792.282670,0.379545,0.190919
792.316062,0.418182,0.037483
792.349454,0.350000,0.113795
792.382845,1.029545,0.308679
792.416236,2.945455,0.395690
792.449627,6.645455,0.951217
792.483018,19.204545,1.375094
792.516408,37.272727,0.873745
792.549798,46.901515,1.921597
792.583188,27.022727,0.813354
792.616578,4.845455,0.326419
792.649967,2.826515,0.256695
792.683356,1.200000,0.125474
792.716745,0.447727,0.120835
792.750133,0.490909,0.213104
792.783521,0.165909,0.135542
792.816909,0.256818,0.145468
792.850296,0.497727,0.164058
792.883684,0.163636,0.098753
792.917071,0.156818,0.109722
792.950457,0.252273,0.102670
792.983844,-0.252273,0.129381
793.017230,0.395455,0.196390
793.050616,0.415909,0.203492
793.084001,0.279545,0.251100
793.117386,-0.022727,0.067228
793.150771,0.240909,0.131485
793.184156,0.400000,0.162496
793.217541,0.209091,0.103353
793.250925,0.147727,0.121729
793.284309,0.509091,0.071582
793.317692,0.045455,0.039365
793.351075,0.347727,0.034970
793.384458,0.559091,0.116487
793.417841,0.584091,0.227463
793.451223,0.577273,0.155926
793.484606,0.559091,0.170485
793.517988,0.534091,0.179225
793.551369,0.411364,0.249284
793.584750,0.320455,0.080377
793.618131,0.568182,0.218879
793.651512,0.338636,0.156979
793.684893,0.754545,0.206656
793.718273,0.379545,0.133623
793.751653,-0.031061,0.018568
793.785032,0.231818,0.122031
793.818411,0.254545,0.057854
793.851790,0.140909,0.099664
793.885169,0.281818,0.117919
793.918548,0.111364,0.152810
793.951926,0.281818,0.235005
793.985304,0.043182,0.052359
794.018681,0.279545,0.085242
794.052059,0.124242,0.074273
794.085436,0.534091,0.222898
794.118812,0.393182,0.136491
794.152189,0.284091,0.144076
794.185565,0.217424,0.037397
794.218941,0.611364,0.116126
794.252317,0.622727,0.144939
794.285692,2.622727,0.456739
794.319067,7.938636,0.554130
794.352442,22.643182,0.485783
794.385816,56.884091,1.107102
794.419190,88.259091,2.226562
794.452564,69.047727,2.254943
794.485938,22.690909,1.924924
794.519311,6.491667,0.396959
794.552684,0.993939,0.246379
794.586057,0.309091,0.167505
794.619429,0.279545,0.160815
794.652802,0.372727,0.111618
794.686173,0.304545,0.089391
794.719545,0.143182,0.055519
794.752916,-0.102273,0.267166
794.786287,0.284091,0.213428
794.819658,-0.134091,0.083529
794.853029,0.275000,0.110426
794.886399,0.363636,0.220349
794.919769,0.090909,0.032141
794.953138,0.372727,0.170257
794.986508,-0.156818,0.076424
795.019877,-0.031061,0.018568
795.053245,-0.002273,0.033767
795.086614,0.088636,0.086266
795.119982,0.161364,0.036699
795.153350,0.038636,0.109392
795.186718,0.204545,0.152035
795.220085,0.593182,0.486336
795.253452,0.490909,0.213104
795.286819,0.472727,0.174985
795.320185,0.654545,0.128725
795.353551,0.422727,0.199522
795.386917,0.534091,0.251224
795.420283,0.090909,0.160706
795.453648,0.650000,0.291999
795.487013,0.547727,0.145539
795.520378,0.165909,0.077298
795.553742,-0.031061,0.018568
795.587107,0.093182,0.128580
795.620471,0.002273,0.033767
795.653834,0.403788,0.038081
795.687197,0.718182,0.199327
795.720560,0.215909,0.095583
795.753923,0.124242,0.037206
795.787286,0.124242,0.049167
795.820648,0.800000,0.242746
795.854010,-0.229545,0.133893
795.887371,0.413636,0.128625
795.920733,0.795455,0.384857
795.954094,0.511364,0.214032
795.987454,0.459091,0.315598
796.020815,0.211364,0.142418
796.054175,0.528030,0.050347
796.087535,0.170455,0.107054
796.120894,0.776515,0.134816
796.154254,0.559091,0.056909
796.187613,3.718182,0.376011
796.220971,15.220455,0.993514
796.254330,60.088636,1.983664
796.287688,134.272727,3.446012
796.321046,183.961364,8.029927
796.354403,98.679545,4.433456
796.387761,25.376515,1.530494
796.421118,3.447727,0.097137
796.454474,1.708333,0.088571
796.487831,0.531818,0.181064
796.521187,0.100000,0.107853
796.554543,0.138636,0.050347
796.587898,0.352273,0.065031
796.621254,0.402273,0.113562
796.654609,-0.062121,0.074239
796.687963,0.575000,0.168347
796.721318,-0.217424,0.098300
796.754672,-0.138636,0.081652
796.788026,0.206818,0.057977
796.821379,0.209091,0.214023
796.854732,0.188636,0.058685
796.888085,0.415909,0.335693
796.921438,0.506818,0.339822
796.954790,0.050000,0.095427
796.988142,0.529545,0.118460
797.021494,1.036364,0.312217
797.054846,0.163636,0.237149
797.088197,0.022727,0.081153
797.121548,0.088636,0.057530
797.154899,0.188636,0.037119
797.188249,0.206818,0.057977
797.221599,0.995455,0.113249
797.254949,1.047727,0.113880
797.288298,0.672727,0.205201
797.321648,0.413636,0.111410
797.354996,-0.047727,0.122617
797.388345,0.445455,0.121373
797.421693,0.161364,0.066679
797.455041,0.000000,0.096424
797.488389,0.436364,0.224621
797.521737,0.363636,0.215610
797.555084,0.248485,0.037483
797.588431,0.204545,0.232608
797.621777,0.197727,0.181772
797.655124,-0.143182,0.071753
797.688470,0.217424,0.037397
797.721815,0.206818,0.117012
797.755161,0.259091,0.119982
797.788506,0.931818,0.336141
797.821851,0.465909,0.161007
797.855196,0.440909,0.111965
797.888540,0.156818,0.142490
797.921884,0.093182,0.085060
797.955228,0.248485,0.098333
797.988571,0.325000,0.121899
798.021914,1.370455,0.027532
798.055257,1.025000,0.307371
798.088599,7.618182,0.944449
798.121942,20.786364,1.155447
798.155284,69.104545,3.306664
798.188625,152.925000,3.725843
798.221967,205.528030,6.409974
798.255308,96.299242,3.108103
798.288649,26.587879,1.554000
798.321989,3.875000,0.816187
798.355329,1.050000,0.411125
798.388669,0.265909,0.347413
798.422009,0.725000,0.166403
798.455348,0.279545,0.085242
798.488687,0.709091,0.451398
798.522026,0.638636,0.158778
798.555365,0.506818,0.197567
798.588703,0.275000,0.095367
798.622041,0.124242,0.037206
798.655378,0.513636,0.055064
798.688716,0.434091,0.244788
798.722053,1.195455,0.297258
798.755389,0.306818,0.098248
798.788726,0.341667,0.121899
798.822062,0.002273,0.056625
798.855398,0.211364,0.061269
798.888733,0.343182,0.161039
798.922069,0.202273,0.207563
798.955404,0.347727,0.147933
798.988738,0.590152,0.177458
799.022073,0.300000,0.097171
799.055407,0.827273,0.289378
799.088741,0.302273,0.018568
799.122074,1.256818,0.237244
799.155408,0.772727,0.214409
799.188741,1.493182,0.683395
799.222073,0.395455,0.151899
799.255406,0.062121,0.049114
799.288738,0.250000,0.098412
799.322069,0.622727,0.376663
799.355401,0.062121,0.018603
799.388732,0.031061,0.098195
799.422063,0.776515,0.130929
799.455394,0.843182,0.221643
799.488724,0.820455,0.425436
799.522054,0.752273,0.490355
799.555384,0.590152,0.188742
799.588713,0.395455,0.164941
799.622042,-0.248485,0.074412
799.655371,0.186364,0.064403
799.688700,-0.279545,0.064553
799.722028,0.577273,0.260195
799.755356,0.309091,0.107373
799.788684,0.000000,0.055670
799.822011,0.252273,0.247307
799.855338,0.579545,0.095583
799.888665,0.768182,0.185795
799.921992,0.625000,0.134816
799.955318,1.379545,0.092507
799.988644,7.145455,0.488039
800.021969,26.090909,1.097047
800.055295,109.622727,0.969224
800.088620,247.553030,7.290984
800.121945,321.290909,8.381628
800.155269,197.638636,4.418091
800.188593,59.294697,1.452692
800.221917,8.725000,1.074644
800.255241,2.238636,0.413291
800.288564,0.761364,0.127936
800.321887,0.654545,0.120433
800.355210,0.256818,0.075266
800.388532,0.590909,0.188787
800.421854,-0.156818,0.109722
800.455176,0.341667,0.291731
800.488498,0.281818,0.152324
800.521819,0.472727,0.217138
800.555140,-0.124242,0.291654
800.588461,0.356818,0.156913
800.621781,0.752273,0.384022
800.655101,0.252273,0.331232
800.688421,-0.031061,0.112878
800.721740,-0.018182,0.070711
800.755060,0.284091,0.120663
800.788379,0.115909,0.103422
800.821697,0.213636,0.085854
800.855015,0.155303,0.066988
800.888334,0.186364,0.003936
800.921651,0.869697,0.492359
800.954969,0.068182,0.067228
800.988286,0.238636,0.084083
801.021603,0.372727,0.111618
801.054919,0.459091,0.081407
801.088235,1.447727,0.346371
801.121551,0.643182,0.135732
801.154867,0.528030,0.162158
801.188183,0.320455,0.092340
801.221498,0.486364,0.184455
801.254812,0.490909,0.150619
801.288127,0.329545,0.080953
801.321441,0.322727,0.116841
801.354755,0.802273,0.149668
801.388069,0.372727,0.033091
801.421382,-0.288636,0.175997
801.454695,0.777273,0.223179
801.488008,0.513636,0.136117
801.521320,0.377273,0.074239
801.554632,0.300000,0.107277
801.587944,0.590152,0.159038
801.621256,0.531818,0.110104
801.654567,0.356818,0.119545
801.687878,0.481818,0.181078
801.721189,0.559091,0.167428
801.754499,0.843182,0.235211
801.787809,0.683333,0.186128
801.821119,0.738636,0.207289
801.854428,1.465909,0.281293
801.887737,2.552273,0.213525
801.921046,14.311364,0.580221
801.954355,54.590909,2.058168
801.987663,201.806818,4.395315
802.020971,368.065909,10.856214
802.054279,356.482576,9.435585
802.087586,139.431061,4.299317
802.120894,26.777273,1.834702
802.154200,5.234091,0.680289
802.187507,1.956818,0.123037
802.220813,0.706818,0.194988
802.254119,1.025000,0.226028
802.287425,0.279545,0.116037
802.320730,1.279545,0.200809
802.354035,0.140909,0.094339
802.387340,0.843182,0.216932
802.420644,0.496970,0.038569
802.453949,0.022727,0.067228
802.487252,0.509091,0.195402
802.520556,0.140909,0.025206
802.553859,0.893182,0.174227
802.587162,0.217424,0.133893
802.620465,0.000000,0.055670
802.653767,0.540909,0.134129
802.687069,0.327273,0.070124
802.720371,0.093182,0.032201
802.753673,0.261364,0.088571
802.786974,0.155303,0.151929
802.820275,0.579545,0.215235
802.853576,0.645455,0.095671
802.886876,0.484091,0.231179
802.920176,0.306818,0.161807
802.953476,0.490909,0.071582
802.986775,1.087121,0.186983
803.020074,1.625000,0.275729
803.053373,0.481818,0.156604
803.086672,0.352273,0.111775
803.119970,0.434848,0.081407
803.153268,0.300000,0.072869
803.186565,0.397727,0.090017
803.219863,-0.070455,0.121983
803.253160,0.995455,0.255952
803.286457,0.341667,0.182905
803.319753,0.331818,0.091673
803.353049,0.363636,0.321412
803.386345,0.404545,0.149431
803.419641,0.372727,0.111618
803.452936,0.465909,0.033614
803.486231,0.647727,0.208531
803.519525,0.511364,0.148490
803.552820,0.714394,0.237397
803.586114,1.218182,0.250537
803.619408,0.715909,0.173365
803.652701,1.295455,0.257882
803.685994,1.147727,0.191081
803.719287,0.695455,0.212558
803.752580,0.950000,0.226852
803.785872,1.704545,0.348217
803.819164,5.170455,0.187672
803.852456,19.319697,0.687503
803.885747,78.106818,1.489905
803.919038,270.990909,4.512776
803.952329,492.818182,13.116452
803.985620,451.465909,13.829712
804.018910,155.551515,7.339984
804.052200,24.848485,0.909659
804.085489,5.311364,0.498120
804.118779,2.015909,0.506858
804.152068,1.109091,0.244865
804.185357,0.945455,0.414061
804.218645,0.776515,0.162603
804.251933,1.286364,0.257802
804.285221,1.553030,0.228123
804.318508,0.959091,0.147342
804.351796,1.120455,0.262957
804.385083,1.218182,0.263401
804.418369,0.450000,0.337735
804.451656,1.000000,0.200722
804.484942,1.231818,0.162034
804.518227,0.413636,0.218028
804.551513,0.302273,0.049101
804.584798,0.209091,0.151916
804.618083,0.138636,0.081652
804.651367,0.754545,0.179358
804.684652,0.779545,0.160332
804.717936,0.581818,0.328344
804.751219,1.611364,0.562383
804.784503,0.581818,0.130003
804.817786,0.836364,0.228271
804.851068,0.670455,0.174109
804.884351,1.440909,0.434959
804.917633,1.468182,0.608255
804.950915,0.528030,0.130375
804.984196,1.209091,0.481411
805.017478,0.209091,0.066959
805.050759,0.745455,0.148129
805.084039,0.554545,0.066339
805.117320,0.217424,0.019117
805.150600,0.529545,0.189016
805.183879,0.629545,0.131480
805.217159,0.863636,0.281121
805.250438,0.838636,0.058421
805.283717,0.403788,0.130177
805.316995,0.493182,0.062521
805.350274,1.079545,0.236394
805.383552,0.829545,0.102115
805.416829,1.193182,0.191756
805.450107,1.056061,0.115059
805.483384,0.840909,0.152035
805.516660,0.681818,0.204545
805.549937,0.931818,0.059047
805.583213,1.428788,0.161396
805.616489,1.190909,0.205453
805.649764,2.015909,0.103571
805.683040,1.428788,0.137176
805.716315,2.568182,0.204230
805.749589,6.704545,0.601629
805.782864,32.427273,1.505891
805.816138,139.679545,3.350011
805.849411,484.265909,11.914383
805.882685,903.647727,13.614588
805.915958,931.704545,23.773757
805.949231,356.668939,10.156203
805.982504,61.793182,1.036101
806.015776,6.459091,1.181825
806.049048,2.534091,0.877045
806.082319,0.936364,0.363267
806.115591,0.790909,0.193756
806.148862,0.372727,0.128806
806.182133,0.377273,0.066920
806.215403,0.620455,0.308763
806.248673,0.652273,0.170632
806.281943,0.434848,0.049948
806.315213,0.563636,0.150206
806.348482,1.056061,0.083906
806.381751,0.675000,0.113107
806.415019,-0.045455,0.159091
806.448288,1.190909,0.442873
806.481556,0.670455,0.125901
806.514823,0.890909,0.157590
806.548091,0.602273,0.224630
806.581358,0.559091,0.116487
806.614625,0.425000,0.093341
806.647891,0.496970,0.050206
806.681158,0.368182,0.189101
806.714424,0.543182,0.145893
806.747689,0.468182,0.163051
806.780955,0.963636,0.211644
806.814220,0.588636,0.120920
806.847484,1.409091,0.419686
806.880749,0.745455,0.255598
806.914013,0.341667,0.177167
806.947277,0.934091,0.094003
806.980540,0.659091,0.243458
807.013803,0.621212,0.081944
807.047066,0.397727,0.143177
807.080329,0.403788,0.098563
807.113591,0.840909,0.155395
807.146853,1.052273,0.167886
807.180115,0.881818,0.243808
807.213376,1.277273,0.292494
807.246637,0.652273,0.086147
807.279898,0.922727,0.377211
807.313159,1.242424,0.071870
807.346419,1.087121,0.197724
807.379679,1.335606,0.384492
807.412938,0.902273,0.159525
807.446198,1.431818,0.300439
807.479457,1.538636,0.067678
807.512715,2.329545,0.177050
807.545974,2.013636,0.634848
807.579232,2.670455,0.921138
807.612490,3.056818,0.274321
807.645747,3.618182,0.621282
807.679004,5.322727,1.016097
807.712261,13.045455,0.729046
807.745518,98.427273,2.494113
807.778774,446.993182,9.807182
807.812030,1121.412121,25.146571
807.845285,1366.884091,30.087190
807.878541,870.100758,20.339992
807.911796,173.435606,5.821918
807.945051,20.313636,0.798510
807.978305,2.764394,0.174967
808.011559,0.813636,0.278379
808.044813,1.188636,0.155258
808.078066,0.779545,0.353384
808.111320,1.513636,0.393563
808.144573,0.965909,0.263761
808.177825,1.052273,0.369252
808.211078,0.761364,0.248640
808.244330,0.350000,0.122538
808.277581,1.297727,0.560543
808.310833,0.981818,0.299172
808.344084,0.597727,0.159038
808.377335,0.602273,0.090017
808.410585,0.581818,0.103453
808.443835,1.120455,0.476334
808.477085,0.854545,0.583485
808.510335,0.248485,0.049376
808.543584,0.714394,0.122617
808.576833,0.354545,0.070857
808.610082,0.977273,0.103528
808.643330,0.647727,0.688298
808.676578,1.118182,0.420964
808.709826,1.015909,0.158713
808.743073,0.729545,0.193926
808.776320,1.111364,0.250214
808.809567,1.672727,0.405489
808.842814,1.335606,0.251244
808.876060,1.525000,0.446524
808.909306,1.366667,0.289521
808.942552,0.847727,0.205387
808.975797,0.538636,0.152235
809.009042,0.797727,0.109957
809.042287,1.770455,0.121771
809.075531,0.559091,0.034242
809.108775,0.565909,0.136378
809.142019,0.934091,0.138445
809.175262,0.962879,0.325776
809.208506,1.281818,0.342361
809.241748,1.529545,0.323947
809.274991,1.511364,0.291661
809.308233,1.456818,0.264270
809.341475,1.708333,0.152776
809.374717,1.647727,0.210994
809.407958,1.954545,0.243723
809.441199,1.027273,0.095021
809.474440,1.981818,0.449793
809.507680,2.004545,0.141622
809.540921,2.520455,0.120063
809.574160,3.106061,0.122390
809.607400,5.340909,0.507562
809.640639,7.788636,1.265945
809.673878,26.984091,1.970071
809.707117,123.434091,2.195295
809.740355,525.669697,12.004163
809.773593,1220.371212,30.283072
809.806831,1396.143182,32.758848
809.840068,663.927273,23.449807
809.873305,111.261364,2.315862
809.906542,14.984091,1.149508
809.939778,6.553788,0.933692
809.973015,4.193182,0.241795
810.006250,6.227273,0.398214
810.039486,4.813636,0.793058
810.072721,2.534091,0.486484
810.105956,2.981818,0.534782
810.139191,1.961364,0.390067
810.172425,1.180303,0.178767
810.205659,0.310606,0.049533
810.238893,0.640909,0.198171
810.272126,1.361364,0.401963
810.305359,1.920455,0.394426
810.338592,0.690909,0.410553
810.371825,1.438636,0.248723
810.405057,1.006818,0.442609
810.438289,0.807576,0.194488
810.471520,0.822727,0.212266
810.504751,0.600000,0.248050
810.537982,0.645455,0.163447
810.571213,0.522727,0.312242
810.604443,0.403788,0.121983
810.637673,0.822727,0.217078
810.670903,1.470455,0.652303
810.704133,1.000000,0.064282
810.737362,0.881818,0.194288
810.770591,1.118182,0.099274
810.803819,-0.093182,0.032201
810.837047,0.528030,0.103920
810.870275,0.403788,0.185763
810.903503,0.893182,0.241346
810.936730,0.279545,0.167115
810.969957,0.402273,0.087927
811.003184,0.354545,0.156999
811.036410,0.756818,0.304637
811.069636,0.634091,0.186596
811.102862,1.801515,0.217364
811.136087,0.279545,0.179052
811.169312,0.993939,0.274163
811.202537,0.940909,0.230287
811.235762,1.418182,0.214071
811.268986,0.621212,0.177506
811.302210,0.750000,0.275319
811.335433,0.496970,0.188623
811.368656,0.675000,0.158713
811.401879,1.242424,0.259131
811.435102,1.366667,0.179358
811.468324,1.677273,0.454790
811.501546,2.236364,0.215993
811.534768,2.259091,0.377485
811.567990,1.708333,0.191756
811.601211,5.495455,0.348869
811.634432,16.584091,0.920431
811.667652,90.834848,1.608047
811.700872,361.586364,7.289853
811.734092,830.591667,17.585675
811.767312,1071.563636,25.913537
811.800531,549.679545,14.594847
811.833750,81.843182,4.097514
811.866969,8.093182,0.311461
811.900187,2.695455,0.708665
811.933405,1.352273,0.284034
811.966623,1.584091,0.487534
811.999840,0.869697,0.159610
812.033057,1.304545,0.142784
812.066274,1.929545,0.418335
812.099490,0.776515,0.082533
812.132707,0.797727,0.268151
812.165923,0.995455,0.255952
812.199138,1.095455,0.643639
812.232353,0.625000,0.134816
812.265568,0.138636,0.093452
812.298783,0.000000,0.115887
812.331997,-0.124242,0.049167
812.365211,0.621212,0.186031
812.398425,0.275000,0.053819
812.431638,-0.155303,0.018844
812.464851,0.597727,0.098981
812.498064,0.188636,0.137622
812.531277,0.154545,0.154612
812.564489,0.031061,0.049101
812.597701,1.088636,0.437408
812.630912,0.220455,0.439740
812.664123,0.138636,0.145361
