#{
#    "background_file": "Backgrounds\\\\bg_785.995nm_13bin_219st_244en_10.0s_110g_4x_13_seq.txt",
#    "ccd_image_settings": [
#        1,
#        13,
#        1,
#        1600,
#        219,
#        244
#    ],
#    "ccd_temperature": "-87",
#    "cdRatios": {
#        "mean": 0.9474176120804836,
#        "std": 0.009006608821382349
#    },
#    "center_lambda": 786.0,
#    "comments": "",
#    "dark_region": 90.44414454369537,
#    "date": "10/22/20 17:58:05PM",
#    "eff_field": 1.5,
#    "exposure": 10.0,
#    "fel_lambda": "15.0",
#    "fel_pol": "H",
#    "fel_pulses": 42,
#    "fel_pyro_cal": "0.012",
#    "fel_reprate": "1.07",
#    "fel_transmission": "1.0",
#    "fel_transmission_fits": {
#        "A": 1.0,
#        "C": 0.0,
#        "Mu": 0.0
#    },
#    "fieldInt": {
#        "mean": 5118.3549375,
#        "std": 158.88591334065188
#    },
#    "fieldStrength": {
#        "mean": 32.81847916666667,
#        "std": 0.5196151631015234
#    },
#    "fpTime": {
#        "mean": 1.098978087076011,
#        "std": 0.06474723674958605
#    },
#    "gain": 110,
#    "grating": 3,
#    "images_in_sequence": [
#        "hsg_820nm_c123_a00_HAna545.txt",
#        "hsg_820nm_c123_a00_HAna546.txt",
#        "hsg_820nm_c123_a00_HAna547.txt",
#        "hsg_820nm_c123_a00_HAna548.txt"
#    ],
#    "nir_lambda": "819.98",
#    "nir_pola": "00",
#    "nir_polg": "0",
#    "nir_power": "100.0",
#    "pulseEnergies": {
#        "mean": 1.5606912878787877,
#        "std": 0.05654116231684982
#    },
#    "pyroVoltage": {
#        "mean": 0.13733780886046956,
#        "std": 0.005903735388176845
#    },
#    "rotatorAngle": 90.0,
#    "sample_Temp": "55",
#    "sample_name": "L001218.C1",
#    "series": "820_Fan",
#    "slits": "60",
#    "spec_step": "",
#    "window_trans": 0.92,
#    "y_max": 2,
#    "y_min": 1
#}
#
#
#
#
#
#
#
#
#
#
#
#
#
#
#
#
#
#
#
#
#
#
#
#
#
#
Wavelength,Signal,error
nm,arb. u.,arb.u.
Wavelength,820_Fan,error
759.194366,0.247727,0.166929
759.228015,0.329545,0.194458
759.261663,0.584091,0.277391
759.295311,0.131818,0.150773
759.328959,0.381818,0.078203
759.362607,0.370455,0.189425
759.396254,0.590909,0.512962
759.429901,0.000000,0.032141
759.463548,0.136364,0.100155
759.497194,-0.147727,0.112924
759.530841,0.295455,0.152747
759.564487,-0.027273,0.069976
759.598133,0.036364,0.150447
759.631779,0.427273,0.222077
759.665424,0.752273,0.302493
759.699069,0.061364,0.124954
759.732714,0.606818,0.305652
759.766359,0.820455,0.217337
759.800003,0.179545,0.169234
759.833648,0.420455,0.318739
759.867292,0.025000,0.054486
759.900935,0.727273,0.313998
759.934579,0.720455,0.315269
759.968222,-0.152273,0.128620
760.001865,0.170455,0.176144
760.035508,0.125000,0.072469
760.069151,0.072727,0.041161
760.102793,0.231818,0.144475
760.136435,0.056818,0.154424
760.170077,0.022727,0.040465
760.203718,0.159091,0.093015
760.237360,-0.352273,0.102115
760.271001,0.536364,0.346201
760.304642,0.447727,0.168898
760.338283,-0.284091,0.029348
760.371923,0.486364,0.387105
760.405563,0.345455,0.202439
760.439203,0.175000,0.140004
760.472843,0.611364,0.210896
760.506482,0.863636,0.501506
760.540122,0.545455,0.318523
760.573761,0.911364,0.278655
760.607399,0.268182,0.088985
760.641038,0.352273,0.231849
760.674676,0.220455,0.083714
760.708314,0.961364,0.130256
760.741952,0.095455,0.035428
760.775589,0.018182,0.070711
760.809227,0.156818,0.151008
760.842864,0.450000,0.293270
760.876501,-0.263636,0.108569
760.910137,0.436364,0.137758
760.943774,0.363636,0.070050
760.977410,-0.136364,0.103353
761.011046,0.097727,0.057619
761.044681,-0.031818,0.103178
761.078317,0.484091,0.200036
761.111952,0.018182,0.061237
761.145587,0.043182,0.094551
761.179221,0.075000,0.072469
761.212856,-0.022727,0.209843
761.246490,0.636364,0.271303
761.280124,0.550000,0.150978
761.313758,0.345455,0.252406
761.347391,0.356818,0.130850
761.381024,-0.238636,0.071897
761.414657,-0.213636,0.060174
761.448290,0.159848,0.049970
761.481923,0.240909,0.079090
761.515555,0.115909,0.037397
761.549187,-0.100000,0.133724
761.582819,-0.027273,0.088198
761.616450,-0.227273,0.133840
761.650082,0.059091,0.320422
761.683713,0.027273,0.053203
761.717344,-0.093182,0.085060
761.750974,0.220455,0.338604
761.784605,0.093182,0.144685
761.818235,0.356818,0.156913
761.851865,0.268182,0.192351
761.885494,-0.204545,0.118466
761.919124,0.215909,0.024557
761.952753,0.352273,0.190405
761.986382,0.570455,0.177953
762.020010,0.595455,0.234311
762.053639,0.163636,0.111665
762.087267,0.993182,0.349489
762.120895,0.172727,0.096477
762.154523,-0.004545,0.059396
762.188150,0.279545,0.195332
762.221777,0.331818,0.125041
762.255404,1.131818,0.384440
762.289031,0.204545,0.125371
762.322658,0.400000,0.205628
762.356284,0.027273,0.146903
762.389910,-0.136364,0.169650
762.423536,0.377273,0.146604
762.457161,0.675000,0.198558
762.490786,0.311364,0.096014
762.524411,0.534091,0.336477
762.558036,0.186364,0.300903
762.591661,0.490909,0.339116
762.625285,-0.225000,0.167855
762.658909,0.215909,0.110613
762.692533,0.304545,0.054687
762.726157,0.565909,0.333656
762.759780,0.570455,0.413928
762.793403,0.525000,0.056807
762.827026,0.190909,0.070857
762.860649,0.173485,0.191819
762.894271,0.252273,0.118634
762.927893,0.231818,0.173696
762.961515,0.186364,0.111410
762.995137,0.070455,0.062850
763.028758,0.320455,0.239476
763.062379,0.006818,0.143502
763.096000,0.152273,0.218735
763.129621,0.290909,0.187772
763.163241,0.095455,0.166686
763.196862,0.327273,0.143452
763.230481,0.213636,0.039430
763.264101,-0.045455,0.135261
763.297721,-0.025000,0.063260
763.331340,0.018182,0.061237
763.364959,0.122727,0.054782
763.398578,-0.279545,0.069038
763.432196,1.172727,0.432488
763.465814,0.613636,0.303160
763.499432,0.336364,0.083937
763.533050,0.731818,0.199806
763.566668,0.370455,0.165375
763.600285,0.020455,0.143466
763.633902,0.168182,0.041969
763.667519,0.277273,0.148842
763.701135,0.097727,0.127491
763.734752,0.165909,0.094387
763.768368,0.647727,0.211092
763.801984,0.131818,0.150224
763.835599,0.197727,0.265012
763.869215,0.477273,0.096236
763.902830,0.636364,0.212934
763.936444,0.334091,0.295339
763.970059,-0.172727,0.129246
764.003673,0.350000,0.246012
764.037288,0.588636,0.182877
764.070901,0.015909,0.235672
764.104515,-0.052273,0.073881
764.138128,0.306818,0.088044
764.171742,0.206818,0.099968
764.205354,0.320455,0.225799
764.238967,0.186364,0.104866
764.272580,0.109091,0.249359
764.306192,0.418182,0.146163
764.339804,0.300000,0.208646
764.373415,0.263636,0.134110
764.407027,0.143182,0.024133
764.440638,0.175000,0.107246
764.474249,0.350000,0.368792
764.507860,-0.070455,0.233337
764.541470,0.138636,0.100174
764.575080,0.629545,0.291182
764.608690,0.136364,0.137645
764.642300,0.004545,0.341764
764.675909,0.406818,0.179743
764.709519,0.368182,0.183557
764.743128,0.438636,0.295391
764.776736,0.163636,0.035646
764.810345,0.443182,0.221597
764.843953,0.743182,0.519977
764.877561,-0.150000,0.098779
764.911169,0.093182,0.032201
764.944776,0.627273,0.279795
764.978384,0.422727,0.246662
765.011991,0.065909,0.101506
765.045598,0.304545,0.079415
765.079204,0.409091,0.125062
765.112810,0.093182,0.092396
765.146416,0.568182,0.309984
765.180022,0.431818,0.101461
765.213628,0.452273,0.380658
765.247233,0.622727,0.252539
765.280838,1.222727,0.310649
765.314443,0.736364,0.234036
765.348048,0.568182,0.216769
765.381652,0.309091,0.228451
765.415256,0.225000,0.194856
765.448860,0.168182,0.087049
765.482463,0.025000,0.110753
765.516067,0.568182,0.441137
765.549670,0.129545,0.226051
765.583273,0.472727,0.327336
765.616875,0.302273,0.238179
765.650478,0.218182,0.124814
765.684080,0.515909,0.180145
765.717682,0.163636,0.093376
765.751283,-0.072727,0.061322
765.784885,0.211364,0.047822
765.818486,0.334091,0.082658
765.852087,0.406818,0.100380
765.885687,0.184091,0.186596
765.919288,0.915909,0.397193
765.952888,-0.075000,0.104958
765.986488,0.438636,0.323756
766.020087,0.061364,0.122532
766.053687,0.320455,0.296003
766.087286,0.097727,0.086326
766.120885,0.243182,0.177720
766.154484,0.361364,0.202014
766.188082,0.588636,0.288294
766.221680,0.202273,0.202270
766.255278,0.015909,0.106425
766.288876,-0.050000,0.053926
766.322473,0.290909,0.123524
766.356070,0.577273,0.272604
766.389667,0.709091,0.289842
766.423264,-0.290909,0.063311
766.456860,0.252273,0.121133
766.490457,0.636364,0.212934
766.524053,0.020455,0.039414
766.557648,0.497727,0.132964
766.591244,0.611364,0.299886
766.624839,0.047727,0.055426
766.658434,0.561364,0.287989
766.692029,0.765909,0.228550
766.725623,0.500000,0.273465
766.759217,0.959091,0.189238
766.792811,0.425000,0.295129
766.826405,-0.104545,0.102877
766.859999,0.188636,0.054864
766.893592,0.413636,0.146075
766.927185,0.202273,0.159751
766.960777,-0.086364,0.133473
766.994370,0.900000,0.463447
767.027962,0.968182,0.505277
767.061554,0.922727,0.344833
767.095146,0.520455,0.291501
767.128737,0.356818,0.373051
767.162329,0.600000,0.101028
767.195920,0.645455,0.396081
767.229510,1.331818,0.466308
767.263101,0.620455,0.178272
767.296691,0.327273,0.176426
767.330281,-0.047727,0.096283
767.363871,0.002273,0.236022
767.397460,0.253030,0.015358
767.431050,0.665909,0.210553
767.464639,0.888636,0.471835
767.498227,0.211364,0.073390
767.531816,0.072727,0.108140
767.565404,-0.470455,0.093617
767.598992,0.593182,0.242690
767.632580,0.145455,0.044652
767.666168,0.497727,0.287935
767.699755,0.184091,0.141289
767.733342,0.286364,0.073680
767.766929,0.306818,0.088044
767.800515,0.609091,0.204343
767.834101,0.140909,0.051975
767.867687,0.715909,0.073671
767.901273,0.254545,0.301802
767.934859,-0.375000,0.083529
767.968444,0.102273,0.177021
768.002029,0.070455,0.038081
768.035614,-0.029545,0.070519
768.069198,-0.047727,0.023918
768.102783,-0.490909,0.171376
768.136367,0.084091,0.162857
768.169950,-0.170455,0.043524
768.203534,0.147727,0.088044
768.237117,0.670455,0.246051
768.270700,0.147727,0.075404
768.304283,0.490909,0.147535
768.337866,-0.018182,0.084060
768.371448,-0.063636,0.101334
768.405030,0.331818,0.075069
768.438612,0.570455,0.443099
768.472193,0.550000,0.091278
768.505775,0.193182,0.168653
768.539356,0.800000,0.248736
768.572936,0.300000,0.133066
768.606517,-0.168182,0.041969
768.640097,-0.102273,0.077631
768.673677,0.050000,0.053926
768.707257,0.184091,0.106133
768.740836,0.111364,0.088629
768.774416,0.447727,0.168898
768.807995,0.127273,0.094694
768.841574,0.945455,0.226088
768.875152,1.284091,0.374488
768.908730,0.397727,0.213210
768.942308,0.343182,0.132146
768.975886,0.254545,0.153876
769.009464,0.459091,0.313612
769.043041,0.484091,0.344487
769.076618,0.293182,0.081968
769.110195,0.040909,0.078828
769.143771,0.804545,0.093624
769.177348,0.022727,0.073399
769.210924,-0.072727,0.073785
769.244499,0.322727,0.207914
769.278075,0.402273,0.045041
769.311650,0.125000,0.081968
769.345225,0.315909,0.140739
769.378800,0.143182,0.071753
769.412375,0.618182,0.435309
769.445949,-0.043182,0.184228
769.479523,0.465909,0.286857
769.513097,0.209091,0.080930
769.546670,0.213636,0.088052
769.580243,-0.145455,0.055017
769.613816,0.388636,0.148594
769.647389,0.186364,0.197335
769.680962,0.220455,0.143322
769.714534,-0.052273,0.070884
769.748106,-0.006818,0.075472
769.781678,0.190909,0.004545
769.815249,0.261364,0.363770
769.848820,-0.159091,0.169269
769.882391,0.111364,0.126963
769.915962,0.147727,0.075404
769.949533,0.184091,0.120963
769.983103,0.075000,0.041458
770.016673,0.045455,0.068182
770.050243,0.015909,0.103571
770.083812,-0.059091,0.192459
770.117381,0.150000,0.121479
770.150950,0.220455,0.105547
770.184519,-0.109091,0.111526
770.218088,-0.015909,0.090703
770.251656,0.179545,0.145752
770.285224,0.438636,0.181488
770.318791,0.020455,0.050858
770.352359,0.588636,0.187837
770.385926,0.450000,0.182003
770.419493,0.463636,0.274728
770.453060,-0.177273,0.177491
770.486626,0.052273,0.054391
770.520192,0.506818,0.211654
770.553758,1.009091,0.301631
770.587324,0.600000,0.245265
770.620890,0.454545,0.134802
770.654455,0.893182,0.283288
770.688020,0.638636,0.080055
770.721584,0.404545,0.326142
770.755149,0.695455,0.291379
770.788713,0.261364,0.123874
770.822277,0.488636,0.227463
770.855841,0.184091,0.084451
770.889404,0.302273,0.101200
770.922967,-0.006818,0.090532
770.956530,0.170455,0.092340
770.990093,0.415909,0.128500
771.023655,0.250000,0.125000
771.057217,0.402273,0.235057
771.090779,0.038636,0.134778
771.124341,-0.247727,0.115323
771.157902,0.284091,0.144076
771.191463,0.484091,0.180145
771.225024,0.168182,0.061867
771.258585,0.070455,0.054010
771.292145,0.461364,0.201835
771.325705,0.000000,0.035355
771.359265,0.059091,0.152442
771.392825,0.184091,0.160396
771.426384,0.193182,0.087041
771.459943,0.002273,0.033767
771.493502,0.209091,0.315361
771.527061,0.095455,0.035428
771.560619,-0.068182,0.146357
771.594177,0.325000,0.184983
771.627735,0.375000,0.129899
771.661293,0.259091,0.048798
771.694850,-0.143182,0.055519
771.728407,0.043182,0.052359
771.761964,0.163636,0.050206
771.795521,0.213636,0.072834
771.829077,0.120455,0.039545
771.862633,0.165909,0.110333
771.896189,0.343182,0.176349
771.929744,0.122727,0.360003
771.963300,0.277273,0.115059
771.996855,0.047727,0.055426
772.030409,0.102273,0.077631
772.063964,0.227273,0.137307
772.097518,-0.009091,0.186917
772.131072,0.243182,0.327988
772.164626,0.147727,0.134854
772.198180,0.163636,0.079188
772.231733,0.434091,0.137584
772.265286,-0.213636,0.017457
772.298839,-0.240909,0.070747
772.332391,0.577273,0.229995
772.365943,0.777273,0.227738
772.399495,0.561364,0.117497
772.433047,0.293182,0.081968
772.466598,0.902273,0.168285
772.500150,0.272727,0.170712
772.533701,0.229545,0.171146
772.567251,0.436364,0.396772
772.600802,0.086364,0.118596
772.634352,0.727273,0.333387
772.667902,0.204545,0.118466
772.701452,-0.025000,0.021651
772.735001,0.397727,0.293532
772.768550,0.336364,0.057406
772.802099,0.375000,0.312504
772.835648,0.270455,0.130018
772.869196,-0.115909,0.094332
772.902744,-0.090909,0.055670
772.936292,0.343182,0.218238
772.969840,0.604545,0.238485
773.003387,0.500000,0.154612
773.036934,0.122727,0.054782
773.070481,0.263636,0.074759
773.104028,0.075000,0.072469
773.137574,0.045455,0.080930
773.171120,0.347727,0.234044
773.204666,0.254545,0.097701
773.238212,0.118182,0.018464
773.271757,0.159091,0.223549
773.305302,0.334091,0.055982
773.338847,0.943182,0.369839
773.372391,0.613636,0.132385
773.405936,0.163636,0.183064
773.439480,0.429545,0.371525
773.473024,0.265909,0.167670
773.506567,0.445455,0.113999
773.540110,0.125000,0.104168
773.573653,0.022727,0.040465
773.607196,0.368182,0.144081
773.640739,0.527273,0.183318
773.674281,0.015909,0.235672
773.707823,0.365909,0.249636
773.741365,0.172727,0.193969
773.774906,0.147727,0.075404
773.808447,0.631818,0.269804
773.841988,0.552273,0.192348
773.875529,0.577273,0.308129
773.909070,-0.220455,0.145041
773.942610,0.300000,0.146657
773.976150,0.118182,0.039886
774.009689,-0.025000,0.021651
774.043229,0.704545,0.399024
774.076768,0.586364,0.172053
774.110307,0.293182,0.229588
774.143845,0.897727,0.252741
774.177384,1.465909,0.400095
774.210922,1.652273,0.416429
774.244460,0.938636,0.254533
774.277997,0.647727,0.107054
774.311535,0.302273,0.175497
774.345072,0.461364,0.168347
774.378609,-0.263636,0.024266
774.412145,-0.068182,0.080128
774.445682,-0.120455,0.055052
774.479218,0.061364,0.144148
774.512754,0.547727,0.503011
774.546289,-0.009091,0.095455
774.579824,0.009091,0.176660
774.613359,0.056818,0.222875
774.646894,0.365909,0.159945
774.680429,-0.088636,0.113471
774.713963,0.650000,0.167181
774.747497,0.022727,0.049533
774.781031,0.186364,0.152950
774.814564,-0.002273,0.056625
774.848097,0.565909,0.401577
774.881630,0.470455,0.273604
774.915163,0.075000,0.163459
774.948696,0.415909,0.151042
774.982228,0.122727,0.071184
775.015760,-0.052273,0.107967
775.049291,-0.070455,0.038081
775.082823,0.152273,0.218498
775.116354,0.118182,0.039886
775.149885,0.425000,0.107439
775.183416,0.204545,0.232608
775.216946,0.079545,0.242307
775.250476,0.440909,0.129745
775.284006,0.545455,0.289717
775.317535,0.368182,0.176323
775.351065,0.302273,0.133197
775.384594,-0.256818,0.103272
775.418123,0.215909,0.064313
775.451651,0.115909,0.160300
775.485180,-0.411364,0.096176
775.518708,-0.097727,0.061269
775.552235,0.222727,0.106915
775.585763,0.081818,0.160642
775.619290,0.238636,0.024557
775.652817,0.222727,0.146393
775.686344,0.461364,0.346818
775.719870,0.240909,0.148007
775.753397,0.413636,0.283217
775.786923,0.177273,0.215166
775.820448,-0.045455,0.098228
775.853974,0.368182,0.130420
775.887499,0.388636,0.095637
775.921024,1.261364,0.343676
775.954549,1.636364,0.518451
775.988073,1.027273,0.364303
776.021597,2.294697,0.354376
776.055121,1.154545,0.445385
776.088645,0.281818,0.139472
776.122168,0.461364,0.232161
776.155691,0.629545,0.305720
776.189214,-0.188636,0.074230
776.222737,0.320455,0.165999
776.256259,-0.290909,0.110782
776.289781,0.147727,0.056442
776.323303,0.409091,0.186336
776.356824,0.022727,0.060856
776.390346,0.168182,0.074239
776.423867,0.154545,0.145241
776.457387,-0.159091,0.197440
776.490908,0.375000,0.080890
776.524428,0.293182,0.096014
776.557948,0.038636,0.191998
776.591468,1.268182,0.342896
776.624987,0.422727,0.142458
776.658506,0.197727,0.199596
776.692025,-0.065909,0.088337
776.725544,-0.063636,0.210715
776.759062,0.050000,0.053926
776.792581,0.040909,0.208336
776.826099,0.450000,0.064803
776.859616,0.622727,0.399774
776.893134,0.240909,0.056178
776.926651,0.588636,0.265926
776.960167,0.356818,0.297395
776.993684,0.268182,0.108020
777.027200,0.370455,0.209075
777.060716,0.240909,0.106867
777.094232,0.445455,0.159836
777.127748,0.227273,0.123273
777.161263,0.047727,0.071681
777.194778,0.040909,0.101716
777.228293,0.197727,0.079797
777.261807,0.338636,0.078557
777.295322,0.395455,0.188335
777.328836,-0.127273,0.105038
777.362349,0.293182,0.119242
777.395863,0.261364,0.053337
777.429376,0.134091,0.133197
777.462889,0.231818,0.244875
777.496401,0.079545,0.100380
777.529914,0.506818,0.284706
777.563426,0.672727,0.223792
777.596938,0.772727,0.288896
777.630449,0.263636,0.117919
777.663961,0.388636,0.155391
777.697472,0.584091,0.297065
777.730983,0.920455,0.248204
777.764493,2.890909,0.768296
777.798004,3.677273,0.414229
777.831514,1.113636,0.253763
777.865023,1.084091,0.151554
777.898533,0.909091,0.470010
777.932042,0.334091,0.025180
777.965551,0.168182,0.089217
777.999060,0.947727,0.447241
778.032568,0.145455,0.042153
778.066076,0.484091,0.249035
778.099584,0.031818,0.096931
778.133092,0.572727,0.072014
778.166599,0.338636,0.153518
778.200107,0.020455,0.071320
778.233613,0.077273,0.085673
778.267120,0.100000,0.081439
778.300626,0.386364,0.096236
778.334132,0.084091,0.193472
778.367638,0.002273,0.060334
778.401144,0.097727,0.149841
778.434649,0.588636,0.413179
778.468154,0.000000,0.047781
778.501659,0.095455,0.047835
778.535163,0.459091,0.092403
778.568668,0.540909,0.192700
778.602172,0.165909,0.037534
778.635675,-0.129545,0.252598
778.669179,0.438636,0.163522
778.702682,0.295455,0.237682
778.736185,0.545455,0.232241
778.769688,0.134091,0.133197
778.803190,0.118182,0.088257
778.836692,0.427273,0.134033
778.870194,0.538636,0.425351
778.903696,0.320455,0.225799
778.937197,0.627273,0.331273
778.970698,0.375000,0.298332
779.004199,0.302273,0.210945
779.037699,0.120455,0.084634
779.071200,0.163636,0.093376
779.104700,0.129545,0.225822
779.138199,0.197727,0.094167
779.171699,0.050000,0.053926
779.205198,0.513636,0.129585
779.238697,0.111364,0.104663
779.272196,0.570455,0.146070
779.305694,0.122727,0.122748
779.339192,0.786364,0.283290
779.372690,0.352273,0.080377
779.406188,0.311364,0.069411
779.439685,0.247727,0.244260
779.473182,0.197727,0.260252
779.506679,0.886364,0.345238
779.540176,1.249242,0.393430
779.573672,2.759091,0.535212
779.607168,4.763636,0.147850
779.640664,2.367424,0.673947
779.674160,2.138636,0.465741
779.707655,0.295455,0.112884
779.741150,0.670455,0.312455
779.774644,0.863636,0.184245
779.808139,0.995455,0.500057
779.841633,0.365909,0.242924
779.875127,0.240909,0.083102
779.908621,0.340909,0.092793
779.942114,0.188636,0.198584
779.975607,0.404545,0.016231
780.009100,0.265909,0.145290
780.042593,0.222727,0.167674
780.076085,0.118182,0.177738
780.109577,0.227273,0.252692
780.143069,0.265909,0.130692
780.176560,0.263636,0.062490
780.210052,0.411364,0.112328
780.243543,0.484091,0.372857
780.277033,0.861364,0.336446
780.310524,-0.284091,0.125531
780.344014,0.250000,0.163936
780.377504,0.026515,0.105710
780.410994,0.104545,0.147762
780.444483,0.631818,0.281974
780.477972,0.972727,0.113272
780.511461,0.977273,0.393405
780.544950,0.081818,0.124399
780.578438,0.238636,0.090017
780.611926,0.213636,0.107253
780.645414,0.390909,0.114947
780.678902,0.870455,0.138184
780.712389,0.254545,0.116952
780.745876,0.406061,0.111634
780.779363,0.563636,0.229174
780.812849,0.263636,0.177709
780.846335,0.009091,0.153000
780.879821,0.102273,0.145006
780.913307,0.440909,0.221506
780.946792,0.415909,0.128500
780.980277,0.243182,0.089384
781.013762,0.186364,0.207442
781.047247,0.188636,0.091891
781.080731,0.431818,0.331250
781.114215,0.363636,0.164235
781.147699,0.700000,0.310575
781.181183,0.331818,0.165317
781.214666,0.156818,0.132809
781.248149,0.447727,0.120406
781.281632,0.404545,0.087817
781.315114,1.040909,0.338469
781.348596,1.454545,0.244696
781.382078,3.768182,0.704182
781.415560,5.625000,0.787777
781.449041,6.839394,0.565944
781.482522,4.461364,0.677741
781.516003,0.688636,0.131204
781.549484,1.118182,0.252447
781.582964,0.884091,0.172409
781.616444,0.594697,0.186309
781.649924,0.406818,0.194856
781.683404,0.397727,0.111358
781.716883,0.059091,0.138226
781.750362,0.377273,0.052371
781.783841,0.209091,0.080930
781.817319,0.170455,0.054106
781.850797,0.572727,0.177302
781.884275,0.334091,0.100996
781.917753,0.479545,0.106667
781.951230,0.050000,0.077506
781.984707,0.275000,0.133391
782.018184,0.347727,0.163142
782.051661,-0.022727,0.060856
782.085137,0.145455,0.078269
782.118613,0.563636,0.249628
782.152089,0.256818,0.056259
782.185564,0.284091,0.029348
782.219040,0.481818,0.186391
782.252515,0.565909,0.193446
782.285989,0.709091,0.271284
782.319464,0.250000,0.246012
782.352938,0.452273,0.395747
782.386412,0.354545,0.357071
782.419885,-0.140909,0.097727
782.453359,-0.038636,0.179023
782.486832,0.527273,0.102247
782.520305,0.295455,0.218501
782.553777,-0.031818,0.103178
782.587249,0.156818,0.192240
782.620721,-0.590909,0.116509
782.654193,0.343182,0.206064
782.687665,0.188636,0.102519
782.721136,0.147727,0.103372
782.754607,0.627273,0.170257
782.788077,0.163636,0.091306
782.821548,0.859091,0.394297
782.855018,0.520455,0.387663
782.888488,0.304545,0.089391
782.921957,0.688636,0.125243
782.955427,-0.002273,0.099190
782.988896,0.063636,0.143524
783.022365,0.409091,0.356043
783.055833,0.522727,0.143794
783.089301,-0.022727,0.060856
783.122769,0.636364,0.261611
783.156237,1.752273,0.417803
783.189704,3.061364,0.590484
783.223172,5.489394,0.201249
783.256638,8.304545,0.347802
783.290105,9.800758,0.792944
783.323571,5.302273,0.702514
783.357037,1.813636,0.147867
783.390503,0.124242,0.049167
783.423969,0.506818,0.297308
783.457434,0.313636,0.148738
783.490899,0.531818,0.330688
783.524364,0.179545,0.228550
783.557828,0.500000,0.133066
783.591292,0.309091,0.072656
783.624756,0.261364,0.083529
783.658220,0.084091,0.119459
783.691683,0.168182,0.349520
783.725146,0.027273,0.113044
783.758609,0.418182,0.226635
783.792072,0.720455,0.308913
783.825534,0.193182,0.037119
783.858996,0.152273,0.141106
783.892458,0.115909,0.103422
783.925919,-0.093182,0.032201
783.959381,-0.093182,0.092396
783.992842,-0.213636,0.080642
784.026302,0.702273,0.358275
784.059763,0.050000,0.053926
784.093223,0.290909,0.135490
784.126683,0.900000,0.421491
784.160142,0.309091,0.087905
784.193601,0.047727,0.096283
784.227060,0.100000,0.092375
784.260519,0.306818,0.046396
784.293978,0.261364,0.066910
784.327436,0.588636,0.269783
784.360894,0.404545,0.080385
784.394352,0.365909,0.262505
784.427809,0.129545,0.126474
784.461266,0.222727,0.139157
784.494723,0.265909,0.055798
784.528180,0.140909,0.172383
784.561636,0.095455,0.032221
784.595092,0.940909,0.621835
784.628548,0.297727,0.177429
784.662003,0.143182,0.055519
784.695458,0.263636,0.143488
784.728913,0.095455,0.035428
784.762368,0.743182,0.351889
784.795823,0.359091,0.134629
784.829277,0.493182,0.192267
784.862731,0.325000,0.143610
784.896184,0.072727,0.117304
784.929637,-0.063636,0.243129
784.963091,0.572727,0.111665
784.996543,2.490909,0.252999
785.029996,4.302273,0.780664
785.063448,9.681818,0.790792
785.096900,10.062879,0.966019
785.130352,11.347727,0.272583
785.163803,4.406061,0.150653
785.197254,1.577273,0.283691
785.230705,1.661364,0.562750
785.264156,0.072727,0.108140
785.297606,0.881818,0.291388
785.331056,0.186364,0.043182
785.364506,0.438636,0.138706
785.397955,0.565909,0.205964
785.431405,0.490909,0.181705
785.464854,-0.238636,0.090017
785.498302,0.025000,0.084267
785.531751,0.270455,0.132925
785.565199,0.588636,0.241324
785.598647,0.077273,0.154996
785.632094,-0.120455,0.063748
785.665542,0.525000,0.289099
785.698989,0.522727,0.141877
785.732436,0.950000,0.288583
785.765882,-0.050000,0.053926
785.799328,0.486364,0.128102
785.832774,0.072727,0.061322
785.866220,0.268182,0.081660
785.899665,0.084091,0.235562
785.933111,0.188636,0.191325
785.966555,-0.043182,0.175791
786.000000,0.845455,0.277366
786.033444,0.884091,0.525952
786.066888,0.456818,0.184424
786.100332,0.170455,0.066290
786.133776,0.413636,0.184091
786.167219,0.340909,0.166902
786.200662,0.477273,0.275019
786.234104,0.379545,0.148281
786.267547,-0.140909,0.104718
786.300989,0.584091,0.151042
786.334431,0.284091,0.073671
786.367872,0.122727,0.054782
786.401314,0.452273,0.364011
786.434755,0.247727,0.130375
786.468196,0.315152,0.072633
786.501636,0.456818,0.070592
786.535076,0.147727,0.096871
786.568516,0.422727,0.243691
786.601956,0.263636,0.087493
786.635395,0.377273,0.050258
786.668834,0.738636,0.256796
786.702273,0.165909,0.083714
786.735712,0.595455,0.358796
786.769150,0.459091,0.177258
786.802588,0.275000,0.337198
786.836026,1.813636,0.447058
786.869463,5.037879,0.666010
786.902900,14.169697,0.473786
786.936337,26.496970,1.188930
786.969774,25.904545,2.034926
787.003210,11.902273,1.503108
787.036646,3.056818,0.415485
787.070082,1.404545,0.502478
787.103518,0.731818,0.207417
787.136953,-0.013636,0.136874
787.170388,0.668182,0.417471
787.203823,0.859091,0.250403
787.237257,-0.161364,0.083343
787.270691,0.227273,0.228406
787.304125,0.045455,0.039365
787.337559,0.420455,0.189725
787.370992,0.238636,0.407197
787.404425,0.265909,0.273510
787.437858,0.397727,0.237462
787.471290,-0.025000,0.110004
787.504723,0.113636,0.130894
787.538155,0.211364,0.133352
787.571586,0.370455,0.121602
787.605018,0.300000,0.168917
787.638449,0.786364,0.256838
787.671880,0.236364,0.165551
787.705310,0.550000,0.144510
787.738741,-0.077273,0.107108
787.772171,0.331818,0.079285
787.805600,0.038636,0.097297
787.839030,0.709091,0.381980
787.872459,0.321970,0.073718
787.905888,1.293182,0.397570
787.939317,0.279545,0.104712
787.972745,0.409091,0.161155
788.006173,0.438636,0.181488
788.039601,0.170455,0.102115
788.073028,0.065909,0.068588
788.106456,0.390909,0.126213
788.139883,0.770455,0.271158
788.173309,0.500000,0.180707
788.206736,0.354545,0.077473
788.240162,0.636364,0.239144
788.273588,0.065909,0.078557
788.307013,0.350000,0.177607
788.340439,0.436364,0.228451
788.373864,0.122727,0.071184
788.407288,0.290909,0.063311
788.440713,0.338636,0.105694
788.474137,0.654545,0.280422
788.507561,0.720455,0.226165
788.540985,0.579545,0.332011
788.574408,0.704545,0.281919
788.607831,0.688636,0.233912
788.641254,0.654545,0.131857
788.674677,1.227273,0.427684
788.708099,2.368182,0.531221
788.741521,14.079545,0.712444
788.774943,25.283333,1.213778
788.808364,33.497727,2.554075
788.841785,27.589394,0.473009
788.875206,8.712121,0.350251
788.908627,2.234091,0.625825
788.942047,0.972727,0.264145
788.975467,0.509091,0.143416
789.008887,0.029545,0.086446
789.042306,-0.004545,0.087522
789.075726,0.190909,0.004545
789.109145,0.375000,0.207289
789.142563,0.747727,0.199182
789.175982,0.190909,0.133415
789.209400,0.456818,0.250214
789.242817,0.663636,0.281268
789.276235,0.468182,0.242969
789.309652,0.395455,0.156323
789.343069,0.122727,0.197988
789.376486,0.495455,0.127212
789.409902,0.204545,0.167674
789.443319,0.411364,0.087278
789.476735,0.402273,0.227645
789.510150,0.277273,0.160110
789.543565,0.147727,0.134854
789.576980,0.218182,0.363864
789.610395,0.727273,0.411608
789.643810,0.259091,0.111271
789.677224,0.261364,0.129899
789.710638,0.402273,0.071609
789.744052,0.570455,0.224882
789.777465,0.175000,0.245904
789.810878,0.618182,0.283481
789.844291,0.334091,0.147758
789.877703,0.579545,0.197567
789.911116,0.786364,0.371081
789.944528,0.575000,0.181573
789.977939,0.268182,0.088985
790.011351,-0.068182,0.037689
790.044762,0.397727,0.157471
790.078173,0.531818,0.208807
790.111583,0.454545,0.300155
790.144994,0.313636,0.084397
790.178404,0.815909,0.492405
790.211813,-0.804545,0.163904
790.245223,0.020455,0.071320
790.278632,0.454545,0.090682
790.312041,0.052273,0.073881
790.345450,0.125000,0.081968
790.378858,0.400000,0.214553
790.412266,0.245455,0.146128
790.445674,0.279545,0.119718
790.479081,0.525000,0.454663
790.512488,0.822727,0.244474
790.545895,1.956818,0.381187
790.579302,9.777273,0.466064
790.612708,24.156818,2.391003
790.646115,43.589394,1.771018
790.679520,57.145455,2.916914
790.712926,35.240909,2.050248
790.746331,11.865909,0.986308
790.779736,3.786364,0.202400
790.813141,1.463636,0.185001
790.846545,0.547727,0.238634
790.879949,0.163636,0.111665
790.913353,0.122727,0.095913
790.946757,0.261364,0.109440
790.980160,0.302273,0.098195
791.013563,0.509091,0.119874
791.046966,0.490909,0.190177
791.080368,0.325000,0.103571
791.113771,0.384091,0.064473
791.147173,0.420455,0.131911
791.180574,0.338636,0.075745
791.213976,0.500000,0.085583
791.247377,0.322727,0.175295
791.280777,1.175000,0.367640
791.314178,0.731818,0.418830
791.347578,0.025000,0.021651
791.380978,0.072727,0.073785
791.414378,0.277273,0.130973
791.447777,-0.152273,0.141106
791.481176,0.650000,0.189756
791.514575,0.552273,0.217313
791.547973,1.352273,0.608611
791.581372,1.011364,0.380645
791.614770,0.370455,0.112787
791.648167,0.643182,0.273887
791.681565,1.068182,0.248996
791.714962,0.472727,0.147885
791.748359,0.313636,0.073750
791.781755,0.245455,0.104743
791.815152,0.243182,0.174612
791.848548,0.506818,0.089094
791.881943,0.720455,0.251922
791.915339,0.163636,0.122137
791.948734,0.579545,0.292545
791.982129,0.331818,0.050360
792.015523,0.645455,0.151882
792.048918,0.315909,0.076424
792.082312,0.311364,0.172679
792.115705,0.984091,0.357511
792.149099,0.370455,0.270318
792.182492,0.540909,0.214204
792.215885,0.647727,0.372968
792.249278,0.395455,0.235521
792.282670,0.634091,0.248807
792.316062,0.352273,0.139486
792.349454,0.575000,0.107439
792.382845,0.879545,0.251799
792.416236,2.127273,0.329208
792.449627,10.956818,0.878269
792.483018,21.559091,0.463252
792.516408,47.368182,1.714455
792.549798,63.963636,1.224926
792.583188,41.563636,1.350838
792.616578,9.960606,0.360942
792.649967,4.561364,0.501819
792.683356,0.911364,0.252065
792.716745,0.727273,0.175722
792.750133,0.650000,0.191463
792.783521,0.459091,0.195626
792.816909,0.909091,0.127920
792.850296,0.613636,0.197047
792.883684,0.184091,0.168009
792.917071,0.461364,0.183046
792.950457,0.418182,0.200284
792.983844,-0.331818,0.079285
793.017230,0.563636,0.131308
793.050616,0.584091,0.207712
793.084001,0.236364,0.075583
793.117386,0.165909,0.053626
793.150771,0.256818,0.098981
793.184156,0.284091,0.115143
793.217541,0.168182,0.041969
793.250925,0.481818,0.185252
793.284309,0.336364,0.101538
793.317692,0.420455,0.262859
793.351075,0.268182,0.156851
793.384458,0.618182,0.119917
793.417841,0.622727,0.150086
793.451223,0.693182,0.241602
793.484606,1.027273,0.411031
793.517988,1.593182,0.412578
793.551369,0.302273,0.124124
793.584750,0.384091,0.040703
793.618131,0.522727,0.191463
793.651512,0.245455,0.206130
793.684893,0.004545,0.047727
793.718273,0.197727,0.079797
793.751653,0.197727,0.126228
793.785032,0.740909,0.281827
793.818411,0.559091,0.144796
793.851790,0.025000,0.021651
793.885169,0.150000,0.121479
793.918548,0.172727,0.155910
793.951926,0.497727,0.091553
793.985304,0.420455,0.146741
794.018681,0.834091,0.332881
794.052059,0.547727,0.202831
794.085436,0.445455,0.133956
794.118812,0.754545,0.100515
794.152189,1.388636,0.476746
794.185565,0.852273,0.056442
794.218941,0.890909,0.407624
794.252317,1.438636,0.475520
794.285692,1.875000,0.354988
794.319067,7.835606,0.333981
794.352442,29.633333,1.949038
794.385816,69.982576,3.008506
794.419190,115.405303,4.534216
794.452564,96.378788,1.889384
794.485938,36.481818,1.711416
794.519311,8.925000,0.830130
794.552684,2.081818,0.918997
794.586057,0.515909,0.251881
794.619429,0.247727,0.160622
794.652802,0.320455,0.137321
794.686173,0.781818,0.301717
794.719545,0.975000,0.565607
794.752916,-0.288636,0.101047
794.786287,0.425000,0.381891
794.819658,0.486364,0.336156
794.853029,0.263636,0.178434
794.886399,0.409091,0.125062
794.919769,0.606818,0.231581
794.953138,0.286364,0.073680
794.986508,-0.259091,0.078302
795.019877,0.093182,0.059472
795.053245,0.413636,0.205566
795.086614,0.157576,0.016906
795.119982,0.468182,0.232341
795.153350,0.456818,0.147022
795.186718,0.734091,0.273510
795.220085,0.463636,0.150858
795.253452,0.506818,0.118198
795.286819,0.359091,0.108972
795.320185,0.665909,0.082658
795.353551,1.495455,0.429654
795.386917,0.800000,0.465815
795.420283,1.047727,0.409941
795.453648,0.679545,0.144649
795.487013,0.634091,0.308160
795.520378,0.027273,0.088198
795.553742,0.097727,0.035410
795.587107,0.440909,0.201069
795.620471,0.372727,0.195666
795.653834,0.352273,0.062932
795.687197,0.552273,0.061100
795.720560,0.195455,0.061364
795.753923,0.925000,0.376456
795.787286,0.818182,0.300757
795.820648,0.265909,0.117101
795.854010,0.752273,0.377675
795.887371,0.261364,0.066910
795.920733,1.004545,0.360061
795.954094,0.506818,0.354084
795.987454,0.565909,0.062686
796.020815,0.904545,0.221670
796.054175,0.559091,0.209424
796.087535,0.784091,0.130889
796.120894,1.536364,0.172218
796.154254,0.936364,0.241145
796.187613,3.378030,0.417989
796.220971,18.122727,1.313788
796.254330,62.379545,1.485314
796.287688,163.231818,3.847594
796.321046,235.964394,3.822299
796.354403,152.902273,7.420465
796.387761,40.993939,0.990082
796.421118,9.615909,0.784538
796.454474,2.481818,0.317483
796.487831,0.809091,0.279111
796.521187,0.493182,0.185652
796.554543,0.638636,0.216718
796.587898,0.172727,0.074551
796.621254,0.643182,0.178474
796.654609,0.009091,0.161891
796.687963,0.584091,0.160461
796.721318,0.238636,0.167331
796.754672,-0.125000,0.116259
796.788026,0.518182,0.087315
796.821379,0.390909,0.162210
796.854732,0.706818,0.212628
796.888085,0.320455,0.183722
796.921438,0.395455,0.205062
796.954790,0.865909,0.387637
796.988142,0.765909,0.126637
797.021494,0.550000,0.076702
797.054846,0.472727,0.239058
797.088197,0.281818,0.139472
797.121548,0.261364,0.162413
797.154899,0.740909,0.230309
797.188249,0.636364,0.078467
797.221599,1.300000,0.423899
797.254949,1.118182,0.107661
797.288298,1.022727,0.226670
797.321648,0.679545,0.315694
797.354996,0.263636,0.024266
797.388345,0.420455,0.142236
797.421693,0.713636,0.280376
797.455041,0.129545,0.144899
797.488389,1.020455,0.254715
797.521737,0.102273,0.102921
797.555084,0.631818,0.231003
797.588431,0.077273,0.072621
797.621777,0.338636,0.090760
797.655124,0.279545,0.178416
797.688470,0.929545,0.183694
797.721815,0.738636,0.301569
797.755161,0.734091,0.395368
797.788506,0.604545,0.182909
797.821851,0.738636,0.139560
797.855196,1.270455,0.450967
797.888540,0.613636,0.334354
797.921884,0.238636,0.100842
797.955228,0.465909,0.272071
797.988571,0.990909,0.153000
798.021914,0.997727,0.229092
798.055257,1.325000,0.697445
798.088599,5.288636,0.170026
798.121942,23.170455,0.268131
798.155284,83.064394,1.696142
798.188625,179.104545,6.293156
798.221967,250.748485,6.326377
798.255308,169.336364,8.066865
798.288649,33.501515,1.297653
798.321989,6.892424,0.139873
798.355329,1.963636,0.137420
798.388669,0.997727,0.292827
798.422009,0.729545,0.303396
798.455348,0.981818,0.368897
798.488687,0.631818,0.197518
798.522026,0.406818,0.042564
798.555365,0.434091,0.116171
798.588703,0.913636,0.336509
798.622041,1.036364,0.383452
798.655378,0.529545,0.079147
798.688716,0.877273,0.269172
798.722053,0.461364,0.144363
798.755389,0.281818,0.103951
798.788726,0.409091,0.306119
798.822062,0.256818,0.138557
798.855398,0.375000,0.166247
798.888733,0.313636,0.073750
798.922069,0.745455,0.153876
798.955404,0.536364,0.214794
798.988738,0.588636,0.130058
799.022073,0.554545,0.191854
799.055407,0.925000,0.235057
799.088741,0.490909,0.243447
799.122074,0.586364,0.126520
799.155408,0.575000,0.097350
799.188741,1.047727,0.285413
799.222073,1.204545,0.190055
799.255406,1.065909,0.212846
799.288738,0.415909,0.143681
799.322069,0.506818,0.094714
799.355401,0.418182,0.148929
799.388732,0.281818,0.169558
799.422063,0.838636,0.211018
799.455394,0.918182,0.154879
799.488724,1.181818,0.413799
799.522054,0.381818,0.106455
799.555384,0.729545,0.204201
799.588713,0.463636,0.274728
799.622042,0.015909,0.181715
799.655371,0.665909,0.082658
799.688700,0.065909,0.143069
799.722028,0.918182,0.272765
799.755356,0.490909,0.151712
799.788684,0.752273,0.185123
799.822011,0.468182,0.298386
799.855338,0.422727,0.113568
799.888665,1.143182,0.051464
799.921992,1.190909,0.164612
799.955318,2.881818,0.839612
799.988644,7.481818,0.643419
800.021969,30.361364,1.093946
800.055295,116.990909,2.658766
800.088620,302.804545,9.810821
800.121945,440.556818,6.739554
800.155269,328.744697,9.653480
800.188593,82.089394,1.792639
800.221917,14.774242,1.039457
800.255241,3.475000,0.684286
800.288564,0.877273,0.205942
800.321887,1.325000,0.103571
800.355210,1.143182,0.405265
800.388532,0.162121,0.053445
800.421854,0.370455,0.144506
800.455176,0.140909,0.104718
800.488498,0.586364,0.244896
800.521819,0.263636,0.042882
800.555140,-0.363636,0.105382
800.588461,0.634091,0.314136
800.621781,0.501515,0.110229
800.655101,0.275000,0.133391
800.688421,0.136364,0.083258
800.721740,0.738636,0.254614
800.755060,0.479545,0.042564
800.788379,0.452273,0.062023
800.821697,0.897727,0.324664
800.855015,0.606818,0.153720
800.888334,0.045455,0.042030
800.921651,0.365909,0.184983
800.954969,0.500000,0.206155
800.988286,0.331818,0.050360
801.021603,1.395455,0.654020
801.054919,1.031818,0.448948
801.088235,1.372727,0.627133
801.121551,0.147727,0.056442
801.154867,0.752273,0.273812
801.188183,0.947727,0.200886
801.221498,0.852273,0.256695
801.254812,0.850000,0.152983
801.288127,0.406818,0.086087
801.321441,0.531818,0.146181
801.354755,0.477273,0.034091
801.388069,0.915909,0.188331
801.421382,0.147727,0.252065
801.454695,0.600000,0.142150
801.488008,0.586364,0.160078
801.521320,1.279545,0.630831
801.554632,0.731818,0.282706
801.587944,0.659091,0.085794
801.621256,0.922727,0.146357
801.654567,1.059091,0.291645
801.687878,1.729545,0.674968
801.721189,1.229545,0.243964
801.754499,1.425000,0.502405
801.787809,0.922727,0.172293
801.821119,1.222727,0.360634
801.854428,1.531818,0.269172
801.887737,3.111364,0.591454
801.921046,11.858333,0.534940
801.954355,63.744697,2.243951
801.987663,220.601515,4.580524
802.020971,463.806818,12.339178
802.054279,528.461364,8.607956
802.087586,222.703030,4.204017
802.120894,43.553409,1.244833
802.154200,10.500000,1.299233
802.187507,3.050000,1.296409
802.220813,1.990909,0.446127
802.254119,1.856818,0.300419
802.287425,1.118182,0.260364
802.320730,0.868182,0.160272
802.354035,0.520455,0.305449
802.387340,0.902273,0.135351
802.420644,0.493182,0.073741
802.453949,0.918182,0.278963
802.487252,1.256818,0.800803
802.520556,0.970455,0.587150
802.553859,2.288636,0.543922
802.587162,0.309091,0.039101
802.620465,0.288636,0.117936
802.653767,0.475000,0.052850
802.687069,0.788636,0.281697
802.720371,1.100000,0.348580
802.753673,0.872727,0.311969
802.786974,0.525000,0.056807
802.820275,1.015909,0.284561
802.853576,0.827273,0.173116
802.886876,0.386364,0.066920
802.920176,0.775000,0.182141
802.953476,1.070455,0.288419
802.986775,3.279545,0.543817
803.020074,1.863636,0.482654
803.053373,0.902273,0.179571
803.086672,0.686364,0.327848
803.119970,0.379545,0.053433
803.153268,1.100000,0.252794
803.186565,0.422727,0.126683
803.219863,0.638636,0.103970
803.253160,1.743182,0.519321
803.286457,0.934091,0.376826
803.319753,0.490909,0.163763
803.353049,0.238636,0.194935
803.386345,0.740909,0.295026
803.419641,0.820455,0.411864
803.452936,1.236364,0.420006
803.486231,1.609091,0.285569
803.519525,0.747727,0.199182
803.552820,0.463636,0.236254
803.586114,1.740909,0.508456
803.619408,0.913636,0.138674
803.652701,1.372727,0.216876
803.685994,1.536364,0.433918
803.719287,1.165909,0.231291
803.752580,1.395455,0.202400
803.785872,2.179545,0.149806
803.819164,6.804545,1.410371
803.852456,21.979545,0.995145
803.885747,95.809091,1.938925
803.919038,297.732576,5.461086
803.952329,600.979545,18.847038
803.985620,628.944697,22.640411
804.018910,231.566667,4.734033
804.052200,42.803788,1.170277
804.085489,6.072727,0.446890
804.118779,3.215909,0.577473
804.152068,1.656818,0.542914
804.185357,2.218182,0.354837
804.218645,2.088636,0.539191
804.251933,1.802273,0.481543
804.285221,1.697727,0.396698
804.318508,2.581818,0.706237
804.351796,1.393182,0.160493
804.385083,1.327273,0.256748
804.418369,1.277273,0.558041
804.451656,1.252273,0.218475
804.484942,1.140909,0.394716
804.518227,0.643182,0.127895
804.551513,1.027273,0.270960
804.584798,0.906818,0.059472
804.618083,0.965909,0.126882
804.651367,0.878788,0.191485
804.684652,1.063636,0.278240
804.717936,0.240909,0.146357
804.751219,0.956818,0.266896
804.784503,0.706818,0.172499
804.817786,1.575000,0.066910
804.851068,1.347727,0.215810
804.884351,1.220455,0.309097
804.917633,2.543182,0.577383
804.950915,1.438636,0.174464
804.984196,0.759091,0.079090
805.017478,1.304545,0.298645
805.050759,1.134091,0.206240
805.084039,1.020455,0.279099
805.117320,0.959091,0.196706
805.150600,1.011364,0.213815
805.183879,0.940909,0.233428
805.217159,0.854545,0.168887
805.250438,1.277273,0.130340
805.283717,0.511364,0.145539
805.316995,1.347727,0.105449
805.350274,1.456818,0.324966
805.383552,1.629545,0.310181
805.416829,1.606818,0.357207
805.450107,1.688636,0.280686
805.483384,1.163636,0.242597
805.516660,1.490909,0.204116
805.549937,2.300000,0.293067
805.583213,1.740909,0.306768
805.616489,1.575000,0.327515
805.649764,2.738636,0.311677
805.683040,2.522727,0.180034
805.716315,2.802273,0.568349
805.749589,6.302273,0.717645
805.782864,33.893182,1.062064
805.816138,146.570455,3.681685
805.849411,574.176515,12.623323
805.882685,1081.629545,34.942545
805.915958,1252.356818,28.830085
805.949231,563.295455,10.021780
805.982504,98.244697,1.952013
806.015776,14.129545,1.353173
806.049048,2.888636,0.353734
806.082319,1.381818,0.279813
806.115591,1.379545,0.167886
806.148862,1.043182,0.480781
806.182133,1.090909,0.230858
806.215403,1.736364,0.332891
806.248673,1.284848,0.241858
806.281943,1.204545,0.424866
806.315213,0.740909,0.277058
806.348482,1.306818,0.263761
806.381751,1.659091,0.235608
806.415019,1.293182,0.436297
806.448288,1.109091,0.262557
806.481556,1.772727,0.378257
806.514823,1.031818,0.157410
806.548091,1.615909,0.271025
806.581358,1.220455,0.309231
806.614625,1.556818,0.371163
806.647891,1.045455,0.080930
806.681158,1.315909,0.200603
806.714424,1.322727,0.198691
806.747689,1.404545,0.279490
806.780955,1.540909,0.284345
806.814220,2.013636,0.391193
806.847484,3.211364,0.778610
806.880749,1.625000,0.249656
806.914013,1.865909,0.342079
806.947277,1.236364,0.228474
806.980540,2.059091,0.129585
807.013803,1.843182,0.324250
807.047066,1.679545,0.341747
807.080329,1.579545,0.210381
807.113591,1.729545,0.189234
807.146853,1.568182,0.111410
807.180115,1.654545,0.295490
807.213376,1.675000,0.213839
807.246637,2.300000,0.321766
807.279898,2.859091,0.469047
807.313159,2.188636,0.249118
807.346419,2.102273,0.392273
807.379679,2.831818,0.522959
807.412938,2.768182,0.318287
807.446198,3.554545,0.509446
807.479457,2.965909,0.517048
807.512715,3.109091,0.212813
807.545974,4.238636,0.526767
807.579232,4.281818,0.357664
807.612490,4.002273,0.276309
807.645747,5.470455,0.533858
807.679004,8.709091,0.671890
807.712261,21.028788,0.587758
807.745518,114.261364,6.941249
807.778774,518.343182,14.510833
807.812030,1409.644697,36.721077
807.845285,1805.190909,45.176807
807.878541,1265.425758,33.062874
807.911796,302.594697,11.133864
807.945051,41.715909,1.613519
807.978305,5.609091,0.879713
808.011559,1.340909,0.258382
808.044813,1.561364,0.374668
808.078066,1.590909,0.310059
808.111320,1.238636,0.258300
808.144573,1.725000,0.709953
808.177825,1.911364,0.401577
808.211078,2.343182,0.289813
808.244330,1.315909,0.333671
808.277581,1.940909,0.154295
808.310833,1.954545,0.298931
808.344084,1.109091,0.256567
808.377335,1.479545,0.173127
808.410585,1.915909,0.399527
808.443835,1.206818,0.321209
808.477085,1.329545,0.281128
808.510335,1.456818,0.479544
808.543584,2.084091,0.266663
808.576833,1.870455,0.256091
808.610082,1.597727,0.437479
808.643330,0.963636,0.169954
808.676578,1.331818,0.191786
808.709826,1.281818,0.252937
808.743073,1.575000,0.063586
808.776320,2.400000,0.469262
808.809567,1.418182,0.164863
808.842814,2.211364,0.102720
808.876060,1.654545,0.280551
808.909306,1.445455,0.193542
808.942552,1.879545,0.298989
808.975797,1.420455,0.123832
809.009042,1.711364,0.374668
809.042287,1.654545,0.215801
809.075531,1.352273,0.211092
809.108775,2.377273,0.539106
809.142019,2.229545,0.402695
809.175262,3.422727,0.408706
809.208506,1.718182,0.291353
809.241748,2.325000,0.101455
809.274991,3.645455,0.587982
809.308233,2.352273,0.080377
809.341475,3.525000,0.263095
809.374717,2.727273,0.313998
809.407958,3.327273,0.223792
809.441199,4.011364,0.245904
809.474440,3.413636,0.416406
809.507680,4.240909,0.430122
809.540921,6.952273,0.508211
809.574160,5.283333,0.381062
809.607400,7.088636,0.680395
809.640639,9.478788,0.197993
809.673878,28.654545,1.112309
809.707117,141.686364,2.841103
809.740355,603.710606,15.075566
809.773593,1554.272727,39.311202
809.806831,1863.636364,52.774760
809.840068,1067.575758,21.867968
809.873305,202.090909,6.548026
809.906542,28.715152,1.875067
809.939778,9.713636,0.587829
809.973015,5.934091,0.341475
810.006250,5.665909,0.880067
810.039486,6.151515,0.270464
810.072721,5.318182,0.430488
810.105956,4.033333,0.709753
810.139191,3.186364,0.243012
810.172425,2.818182,0.879877
810.205659,2.370455,0.784149
810.238893,1.597727,0.495292
810.272126,1.781818,0.139027
810.305359,1.000000,0.475820
810.338592,2.143182,0.632965
810.371825,2.143182,0.302065
810.405057,2.252273,0.497165
810.438289,1.300000,0.401881
810.471520,1.990909,0.667934
810.504751,2.086364,0.534903
810.537982,2.613636,0.893771
810.571213,1.113636,0.239414
810.604443,1.290909,0.322679
810.637673,1.040909,0.365570
810.670903,1.922727,0.602213
810.704133,1.487121,0.316430
810.737362,1.747727,0.492510
810.770591,2.986364,1.161221
810.803819,2.034091,0.530285
810.837047,2.072727,0.355941
810.870275,0.934091,0.256635
810.903503,1.022727,0.243903
810.936730,0.506818,0.228686
810.969957,1.854545,0.292697
811.003184,0.659091,0.106431
811.036410,1.640909,0.503598
811.069636,1.831818,0.396009
811.102862,1.795455,0.239177
811.136087,1.081818,0.189224
811.169312,1.200000,0.110829
811.202537,0.579545,0.101659
811.235762,1.565909,0.228460
811.268986,1.479545,0.349991
811.302210,1.815909,0.250833
811.335433,1.495455,0.407947
811.368656,2.412879,0.150414
811.401879,3.836364,0.498334
811.435102,2.325000,0.352652
811.468324,1.753030,0.428691
811.501546,4.004545,0.614305
811.534768,3.578030,0.267379
811.567990,4.511364,0.686502
811.601211,6.929545,0.629938
811.634432,18.065909,0.781008
811.667652,104.293182,4.269017
811.700872,430.622727,11.461186
811.734092,1111.750758,35.636824
811.767312,1498.231818,41.530050
811.800531,950.332576,13.879880
811.833750,157.753030,5.106596
811.866969,16.084848,0.631573
811.900187,5.977273,0.761540
811.933405,1.878030,0.469049
811.966623,4.011364,0.850434
811.999840,2.338636,0.914797
812.033057,1.347727,0.175821
812.066274,2.318182,0.459507
812.099490,1.222727,0.327217
812.132707,1.690909,0.505875
812.165923,1.554545,0.448805
812.199138,1.463636,0.220513
812.232353,0.875000,0.282557
812.265568,1.002273,0.381200
812.298783,0.590909,0.217304
812.331997,0.718182,0.225401
812.365211,1.552273,0.386008
812.398425,1.143182,0.147583
812.431638,0.847727,0.133584
812.464851,0.970455,0.388781
812.498064,-0.079545,0.139189
812.531277,0.620455,0.401809
812.564489,1.270455,0.412441
812.597701,1.086364,0.326744
812.630912,0.811364,0.170602
812.664123,0.536364,0.194740
