#{
#    "background_file": "Backgrounds\\\\bg_785.995nm_13bin_219st_244en_10.0s_110g_4x_13_seq.txt",
#    "ccd_image_settings": [
#        1,
#        13,
#        1,
#        1600,
#        219,
#        244
#    ],
#    "ccd_temperature": "-87",
#    "cdRatios": {
#        "mean": 0.9408306557200666,
#        "std": 0.009054929098848176
#    },
#    "center_lambda": 786.0,
#    "comments": "",
#    "dark_region": 18.131925103562757,
#    "date": "10/22/20 17:37:38PM",
#    "eff_field": 1.5,
#    "exposure": 10.0,
#    "fel_lambda": "15.0",
#    "fel_pol": "H",
#    "fel_pulses": 43,
#    "fel_pyro_cal": "0.012",
#    "fel_reprate": "1.07",
#    "fel_transmission": "1.0",
#    "fel_transmission_fits": {
#        "A": 1.0,
#        "C": 0.0,
#        "Mu": 0.0
#    },
#    "fieldInt": {
#        "mean": 5110.037929924242,
#        "std": 160.72662107874322
#    },
#    "fieldStrength": {
#        "mean": 32.795600378787874,
#        "std": 0.5176715967079345
#    },
#    "fpTime": {
#        "mean": 1.1237808626811843,
#        "std": 0.06999819634294377
#    },
#    "gain": 110,
#    "grating": 3,
#    "images_in_sequence": [
#        "hsg_820nm_c123_a90_HAna497.txt",
#        "hsg_820nm_c123_a90_HAna498.txt",
#        "hsg_820nm_c123_a90_HAna499.txt",
#        "hsg_820nm_c123_a90_HAna500.txt"
#    ],
#    "nir_lambda": "819.98",
#    "nir_pola": "90",
#    "nir_polg": "0",
#    "nir_power": "100.0",
#    "pulseEnergies": {
#        "mean": 1.568848484848485,
#        "std": 0.055480485882903885
#    },
#    "pyroVoltage": {
#        "mean": 0.13899332708980705,
#        "std": 0.005728127967417086
#    },
#    "rotatorAngle": 202.4999963378817,
#    "sample_Temp": "55",
#    "sample_name": "L001218.C1",
#    "series": "820_Fan",
#    "slits": "60",
#    "spec_step": "",
#    "window_trans": 0.92,
#    "y_max": 2,
#    "y_min": 1
#}
#
#
#
#
#
#
#
#
#
#
#
#
#
#
#
#
#
#
#
#
#
#
#
#
#
#
Wavelength,Signal,error
nm,arb. u.,arb.u.
Wavelength,820_Fan,error
759.194366,-0.047727,0.082282
759.228015,0.045455,0.068182
759.261663,0.245455,0.151916
759.295311,-0.054545,0.101436
759.328959,0.384091,0.362076
759.362607,0.315909,0.132341
759.396254,0.040909,0.120326
759.429901,-0.068182,0.087286
759.463548,0.111364,0.088629
759.497194,-0.306818,0.066988
759.530841,0.272727,0.124482
759.564487,-0.002273,0.096978
759.598133,-0.095455,0.057631
759.631779,-0.050000,0.095427
759.665424,0.461364,0.375425
759.699069,-0.184091,0.030555
759.732714,0.302273,0.196387
759.766359,0.013636,0.144224
759.800003,0.222727,0.126193
759.833648,0.588636,0.539986
759.867292,0.018182,0.181363
759.900935,0.270455,0.239239
759.934579,0.159091,0.049533
759.968222,0.040909,0.198171
760.001865,-0.097727,0.114243
760.035508,0.270455,0.180116
760.069151,0.043182,0.076424
760.102793,0.093182,0.032201
760.136435,0.186364,0.096504
760.170077,-0.097727,0.069188
760.203718,-0.155303,0.074299
760.237360,-0.193182,0.165749
760.271001,-0.115909,0.019117
760.304642,-0.031061,0.049101
760.338283,-0.186364,0.064403
760.371923,0.115909,0.098300
760.405563,0.136364,0.050820
760.439203,0.268182,0.344699
760.472843,0.118182,0.088257
760.506482,0.106818,0.169112
760.540122,0.456818,0.189071
760.573761,0.434848,0.130222
760.607399,0.197727,0.147233
760.641038,-0.052273,0.080570
760.674676,0.300000,0.072869
760.708314,0.186364,0.064403
760.741952,0.248485,0.177098
760.775589,-0.095455,0.057631
760.809227,0.247727,0.270357
760.842864,-0.070455,0.067449
760.876501,-0.236364,0.047238
760.910137,0.279545,0.064553
760.943774,0.124242,0.018741
760.977410,0.229545,0.174138
761.011046,-0.184091,0.071175
761.044681,-0.047727,0.068588
761.078317,0.095455,0.035428
761.111952,0.140909,0.165816
761.145587,-0.217424,0.049311
761.179221,-0.072727,0.076331
761.212856,-0.372727,0.111618
761.246490,0.229545,0.117453
761.280124,0.363636,0.242661
761.313758,0.113636,0.037689
761.347391,0.279545,0.167115
761.381024,-0.304545,0.042336
761.414657,-0.206818,0.080377
761.448290,0.143182,0.147233
761.481923,0.090909,0.115887
761.515555,0.124242,0.080930
761.549187,-0.155303,0.049206
761.582819,-0.170455,0.102115
761.616450,-0.054545,0.128404
761.650082,-0.302273,0.092786
761.683713,-0.022727,0.019682
761.717344,-0.310606,0.049533
761.750974,-0.341667,0.081208
761.784605,-0.140909,0.094339
761.818235,0.343182,0.120706
761.851865,-0.025000,0.059732
761.885494,-0.402273,0.108919
761.919124,0.131818,0.137176
761.952753,0.025000,0.038753
761.986382,0.229545,0.145006
762.020010,0.090909,0.078730
762.053639,-0.002273,0.046619
762.087267,0.248485,0.019285
762.120895,0.124242,0.049167
762.154523,-0.052273,0.107967
762.188150,0.245455,0.329882
762.221777,0.390909,0.128324
762.255404,0.020455,0.039414
762.289031,0.018182,0.070711
762.322658,0.093182,0.096444
762.356284,0.113636,0.209227
762.389910,-0.347727,0.116703
762.423536,0.140909,0.076162
762.457161,-0.310606,0.037689
762.490786,0.093182,0.055705
762.524411,0.111364,0.177807
762.558036,0.088636,0.057530
762.591661,-0.068182,0.059047
762.625285,-0.683333,0.039821
762.658909,0.000000,0.032141
762.692533,-0.143182,0.078623
762.726157,-0.020455,0.060163
762.759780,-0.163636,0.021320
762.793403,0.481818,0.254586
762.827026,0.047727,0.023918
762.860649,0.341667,0.121899
762.894271,-0.011364,0.186291
762.927893,-0.120455,0.055052
762.961515,0.065909,0.068588
762.995137,-0.027273,0.083443
763.028758,0.111364,0.126963
763.062379,-0.077273,0.105308
763.096000,0.115909,0.145006
763.129621,0.090909,0.032141
763.163241,-0.052273,0.148281
763.196862,0.200000,0.167751
763.230481,0.113636,0.049533
763.264101,0.022727,0.049533
763.297721,0.018182,0.210372
763.331340,-0.006818,0.143502
763.364959,0.136364,0.152459
763.398578,-0.496970,0.021320
763.432196,0.040909,0.085129
763.465814,-0.375000,0.082533
763.499432,0.496970,0.103851
763.533050,0.047727,0.068588
763.566668,0.152273,0.205387
763.600285,-0.186364,0.085129
763.633902,0.186364,0.032381
763.667519,0.155303,0.018844
763.701135,0.031061,0.037119
763.734752,0.155303,0.074299
763.768368,0.227273,0.171587
763.801984,-0.155303,0.049206
763.835599,0.065909,0.060591
763.869215,0.093182,0.085060
763.902830,0.025000,0.087751
763.936444,-0.002273,0.056625
763.970059,-0.047727,0.068588
764.003673,0.118182,0.088257
764.037288,0.140909,0.051975
764.070901,-0.377273,0.080898
764.104515,-0.163636,0.067726
764.138128,0.093182,0.032201
764.171742,0.322727,0.225482
764.205354,0.134091,0.146423
764.238967,0.279545,0.085242
764.272580,-0.186364,0.032381
764.306192,0.186364,0.003936
764.339804,0.181818,0.055670
764.373415,0.140909,0.189101
764.407027,0.043182,0.069337
764.440638,0.063636,0.169893
764.474249,0.225000,0.153653
764.507860,0.104545,0.256194
764.541470,0.115909,0.019117
764.575080,-0.047727,0.023918
764.608690,-0.072727,0.041161
764.642300,-0.490909,0.063960
764.675909,-0.031818,0.153926
764.709519,0.395455,0.103328
764.743128,0.227273,0.104149
764.776736,0.528030,0.232783
764.810345,0.025000,0.038753
764.843953,-0.113636,0.059047
764.877561,-0.097727,0.088804
764.911169,-0.075000,0.064952
764.944776,-0.020455,0.075404
764.978384,-0.120455,0.084634
765.011991,0.231818,0.093237
765.045598,0.088636,0.097509
765.079204,0.093182,0.064313
765.112810,0.361364,0.282959
765.146416,-0.115909,0.049311
765.180022,0.209091,0.049167
765.213628,-0.140909,0.094339
765.247233,0.002273,0.096978
765.280838,0.211364,0.041082
765.314443,0.338636,0.244471
765.348048,0.095455,0.097569
765.381652,0.018182,0.181363
765.415256,-0.004545,0.113249
765.448860,-0.093182,0.032201
765.482463,-0.093182,0.167022
765.516067,0.155303,0.066988
765.549670,-0.045455,0.022727
765.583273,0.070455,0.049832
765.616875,-0.050000,0.053926
765.650478,-0.281818,0.050412
765.684080,0.136364,0.050820
765.717682,-0.186364,0.055809
765.751283,-0.120455,0.090532
765.784885,0.047727,0.051363
765.818486,0.025000,0.038753
765.852087,-0.045455,0.022727
765.885687,-0.115909,0.019117
765.919288,0.043182,0.076424
765.952888,-0.022727,0.037689
765.986488,0.045455,0.122390
766.020087,-0.022727,0.130063
766.053687,0.000000,0.085038
766.087286,0.000000,0.032141
766.120885,-0.002273,0.056625
766.154484,0.018182,0.070711
766.188082,0.031061,0.018568
766.221680,-0.002273,0.167331
766.255278,0.086364,0.256355
766.288876,-0.050000,0.105700
766.322473,-0.050000,0.077506
766.356070,0.090909,0.055670
766.389667,0.345455,0.187524
766.423264,-0.165909,0.119329
766.456860,0.156818,0.109722
766.490457,0.088636,0.112282
766.524053,0.179545,0.216336
766.557648,0.206818,0.057977
766.591244,0.186364,0.003936
766.624839,-0.056818,0.258819
766.658434,-0.070455,0.049832
766.692029,0.090909,0.032141
766.725623,-0.062121,0.049114
766.759217,0.045455,0.081944
766.792811,-0.352273,0.065031
766.826405,-0.165909,0.053626
766.859999,0.093182,0.032201
766.893592,-0.093182,0.032201
766.927185,0.186364,0.032381
766.960777,-0.277273,0.029016
766.994370,0.206818,0.057977
767.027962,0.062121,0.066920
767.061554,-0.050000,0.070528
767.095146,0.070455,0.049832
767.128737,-0.070455,0.020423
767.162329,-0.122727,0.093900
767.195920,-0.188636,0.098195
767.229510,0.184091,0.054770
767.263101,-0.062121,0.080898
767.296691,-0.097727,0.076289
767.330281,-0.377273,0.066920
767.363871,-0.322727,0.073399
767.397460,0.068182,0.037689
767.431050,0.140909,0.082666
767.464639,0.256818,0.113562
767.498227,0.111364,0.061015
767.531816,0.111364,0.130968
767.565404,-0.350000,0.051174
767.598992,-0.002273,0.072612
767.632580,0.109091,0.091136
767.666168,-0.004545,0.059396
767.699755,0.204545,0.130063
767.733342,0.304545,0.142784
767.766929,-0.006818,0.090532
767.800515,0.109091,0.116065
767.834101,0.456818,0.314268
767.867687,-0.025000,0.038753
767.901273,-0.047727,0.068588
767.934859,-0.265909,0.134586
767.968444,-0.045455,0.050820
768.002029,0.070455,0.020423
768.035614,-0.031061,0.066910
768.069198,0.084091,0.144577
768.102783,-0.621212,0.039365
768.136367,0.254545,0.057854
768.169950,0.129545,0.139671
768.203534,0.113636,0.049533
768.237117,0.300000,0.234300
768.270700,0.161364,0.086863
768.304283,0.202273,0.186596
768.337866,-0.029545,0.092228
768.371448,-0.062121,0.018603
768.405030,-0.097727,0.076289
768.438612,-0.004545,0.074793
768.472193,0.181818,0.064282
768.505775,0.002273,0.033767
768.539356,0.084091,0.182481
768.572936,0.000000,0.032141
768.606517,-0.302273,0.049101
768.640097,-0.118182,0.088257
768.673677,-0.002273,0.124912
768.707257,-0.029545,0.102821
768.740836,0.155303,0.112924
768.774416,0.350000,0.130697
768.807995,0.045455,0.122390
768.841574,0.200000,0.161476
768.875152,0.465909,0.140446
768.908730,-0.031061,0.049101
768.942308,0.061364,0.152573
768.975886,-0.075000,0.132848
769.009464,0.155303,0.066988
769.043041,-0.072727,0.061322
769.076618,0.325000,0.049624
769.110195,0.209091,0.049167
769.143771,0.140909,0.040846
769.177348,-0.100000,0.092375
769.210924,-0.279545,0.032679
769.244499,0.297727,0.157963
769.278075,-0.093182,0.085060
769.311650,-0.072727,0.052223
769.345225,0.161364,0.036699
769.378800,0.345455,0.150893
769.412375,0.118182,0.068484
769.445949,-0.350000,0.082165
769.479523,0.225000,0.131950
769.513097,-0.097727,0.099761
769.546670,0.161364,0.086863
769.580243,0.172727,0.374083
769.613816,0.118182,0.039886
769.647389,-0.209091,0.018741
769.680962,-0.043182,0.076424
769.714534,0.022727,0.037689
769.748106,0.275000,0.115009
769.781678,0.093182,0.032201
769.815249,-0.002273,0.046619
769.848820,-0.327273,0.100412
769.882391,-0.031061,0.098195
769.915962,0.186364,0.032381
769.949533,0.197727,0.338604
769.983103,0.293182,0.242243
770.016673,0.025000,0.098824
770.050243,-0.072727,0.061322
770.083812,-0.213636,0.056909
770.117381,0.088636,0.158126
770.150950,0.025000,0.059732
770.184519,0.015909,0.206765
770.218088,0.031061,0.066910
770.251656,0.070455,0.098563
770.285224,-0.095455,0.107637
770.318791,-0.050000,0.053926
770.352359,0.186364,0.032381
770.385926,0.570455,0.160235
770.419493,0.093182,0.032201
770.453060,-0.403788,0.020423
770.486626,-0.095455,0.035428
770.520192,-0.027273,0.139138
770.553758,-0.068182,0.113067
770.587324,0.045455,0.022727
770.620890,0.000000,0.032141
770.654455,0.138636,0.067831
770.688020,0.186364,0.115954
770.721584,0.047727,0.023918
770.755149,-0.093182,0.032201
770.788713,0.277273,0.095427
770.822277,0.256818,0.098981
770.855841,-0.496970,0.081565
770.889404,-0.047727,0.051363
770.922967,-0.090909,0.071870
770.956530,0.118182,0.023619
770.990093,0.109091,0.132677
771.023655,-0.050000,0.053926
771.057217,0.138636,0.038753
771.090779,0.384091,0.318026
771.124341,-0.352273,0.065031
771.157902,0.031061,0.080890
771.191463,0.343182,0.132925
771.225024,0.161364,0.086863
771.258585,-0.006818,0.163680
771.292145,0.047727,0.051363
771.325705,0.022727,0.098412
771.359265,-0.093182,0.032201
771.392825,0.045455,0.050820
771.426384,0.025000,0.021651
771.459943,0.031061,0.018568
771.493502,0.138636,0.021651
771.527061,0.093182,0.064313
771.560619,-0.331818,0.102323
771.594177,0.022727,0.049533
771.627735,0.155303,0.066988
771.661293,0.213636,0.091673
771.694850,-0.234091,0.135160
771.728407,0.088636,0.158126
771.761964,0.234091,0.052654
771.795521,0.263636,0.287228
771.829077,0.002273,0.033767
771.862633,-0.022727,0.037689
771.896189,0.020455,0.060163
771.929744,0.015909,0.232627
771.963300,-0.115909,0.019117
771.996855,0.070455,0.093175
772.030409,0.045455,0.068182
772.063964,0.025000,0.067831
772.097518,-0.093182,0.055705
772.131072,0.125000,0.491502
772.164626,-0.031061,0.049101
772.198180,-0.065909,0.094003
772.231733,-0.050000,0.070528
772.265286,-0.286364,0.106285
772.298839,-0.259091,0.063758
772.332391,0.372727,0.147500
772.365943,0.609091,0.259410
772.399495,0.138636,0.050347
772.433047,-0.125000,0.137660
772.466598,-0.184091,0.044347
772.500150,0.252273,0.164530
772.533701,-0.004545,0.067535
772.567251,-0.231818,0.049948
772.600802,0.043182,0.041333
772.634352,0.065909,0.051363
772.667902,0.181818,0.096424
772.701452,-0.068182,0.037689
772.735001,-0.050000,0.119464
772.768550,-0.027273,0.062158
772.802099,-0.054545,0.139953
772.835648,0.118182,0.088257
772.869196,-0.062121,0.037137
772.902744,0.022727,0.130063
772.936292,0.186364,0.032381
772.969840,0.163636,0.038569
773.003387,0.134091,0.166247
773.036934,0.243182,0.249242
773.070481,0.136364,0.093707
773.104028,-0.124242,0.074273
773.137574,-0.027273,0.083443
773.171120,-0.286364,0.096075
773.204666,0.136364,0.075378
773.238212,-0.093182,0.032201
773.271757,-0.004545,0.185795
773.305302,0.297727,0.102418
773.338847,0.186364,0.085129
773.372391,0.000000,0.064282
773.405936,-0.072727,0.041161
773.439480,-0.072727,0.041161
773.473024,0.184091,0.078096
773.506567,0.234091,0.026577
773.540110,0.397727,0.169600
773.573653,0.086364,0.082666
773.607196,0.572727,0.239533
773.640739,-0.004545,0.059396
773.674281,-0.027273,0.166205
773.707823,0.138636,0.038753
773.741365,0.459091,0.165191
773.774906,-0.050000,0.070528
773.808447,-0.025000,0.059732
773.841988,0.370455,0.069930
773.875529,0.022727,0.067228
773.909070,-0.075000,0.179196
773.942610,-0.000000,0.085038
773.976150,0.163636,0.021320
774.009689,-0.027273,0.053203
774.043229,-0.375000,0.060931
774.076768,0.138636,0.050347
774.110307,-0.238636,0.110613
774.143845,0.025000,0.021651
774.177384,-0.052273,0.125654
774.210922,0.163636,0.113363
774.244460,0.124242,0.037206
774.277997,0.155303,0.018844
774.311535,0.070455,0.038081
774.345072,0.065909,0.068588
774.378609,-0.188636,0.037119
774.412145,0.002273,0.056625
774.445682,-0.034091,0.189725
774.479218,0.070455,0.103671
774.512754,0.115909,0.067065
774.546289,-0.325000,0.037809
774.579824,0.002273,0.102165
774.613359,0.245455,0.193756
774.646894,0.045455,0.022727
774.680429,-0.095455,0.057631
774.713963,0.118182,0.039886
774.747497,0.350000,0.104323
774.781031,0.250000,0.087286
774.814564,-0.188636,0.037119
774.848097,-0.238636,0.100842
774.881630,0.184091,0.054770
774.915163,-0.045455,0.022727
774.948696,-0.068182,0.059047
774.982228,0.093182,0.055705
775.015760,-0.143182,0.078623
775.049291,-0.025000,0.038753
775.082823,-0.052273,0.125654
775.116354,0.093182,0.032201
775.149885,0.031061,0.066910
775.183416,-0.184091,0.030555
775.216946,-0.279545,0.005905
775.250476,0.068182,0.059047
775.284006,0.025000,0.067831
775.317535,-0.306818,0.074299
775.351065,-0.068182,0.059047
775.384594,-0.168182,0.066920
775.418123,0.070455,0.038081
775.451651,-0.143182,0.071753
775.485180,-0.372727,0.056224
775.518708,-0.186364,0.064403
775.552235,0.018182,0.084060
775.585763,-0.215909,0.090017
775.619290,0.120455,0.090532
775.652817,0.090909,0.032141
775.686344,0.090909,0.136364
775.719870,0.000000,0.032141
775.753397,-0.093182,0.055705
775.786923,-0.093182,0.032201
775.820448,0.154545,0.198496
775.853974,0.270455,0.234881
775.887499,0.315909,0.166868
775.921024,0.229545,0.121771
775.954549,-0.277273,0.029016
775.988073,0.068182,0.148599
776.021597,-0.022727,0.037689
776.055121,-0.047727,0.082282
776.088645,0.124242,0.018741
776.122168,-0.470455,0.118460
776.155691,0.070455,0.067449
776.189214,0.179545,0.371094
776.222737,0.109091,0.215706
776.256259,-0.259091,0.044710
776.289781,0.047727,0.023918
776.323303,0.184091,0.044347
776.356824,-0.138636,0.067831
776.390346,0.181818,0.090909
776.423867,0.095455,0.035428
776.457387,-0.215909,0.153619
776.490908,0.229545,0.074369
776.524428,-0.143182,0.071753
776.557948,-0.306818,0.058773
776.591468,0.002273,0.056625
776.624987,0.068182,0.037689
776.658506,0.018182,0.070711
776.692025,-0.238636,0.077698
776.725544,-0.304545,0.100284
776.759062,0.204545,0.152035
776.792581,0.000000,0.085038
776.826099,0.184091,0.030555
776.859616,0.134091,0.070078
776.893134,0.209091,0.049167
776.926651,-0.002273,0.033767
776.960167,0.063636,0.120003
776.993684,0.111364,0.082596
777.027200,0.554545,0.236757
777.060716,-0.095455,0.047835
777.094232,0.188636,0.037119
777.127748,-0.186364,0.003936
777.161263,0.047727,0.023918
777.194778,-0.093182,0.055705
777.228293,0.184091,0.030555
777.261807,0.347727,0.034970
777.295322,0.040909,0.106673
777.328836,-0.038636,0.241131
777.362349,0.129545,0.169722
777.395863,0.040909,0.071978
777.429376,-0.025000,0.059732
777.462889,-0.047727,0.099346
777.496401,0.045455,0.022727
777.529914,0.181818,0.090909
777.563426,0.124242,0.037206
777.596938,0.209091,0.049167
777.630449,0.179545,0.117233
777.663961,0.163636,0.050206
777.697472,0.084091,0.151554
777.730983,-0.331818,0.102323
777.764493,0.000000,0.055670
777.798004,0.413636,0.143794
777.831514,0.152273,0.377346
777.865023,0.063636,0.078335
777.898533,0.047727,0.094003
777.932042,0.113636,0.049533
777.965551,0.063636,0.090568
777.999060,-0.238636,0.077698
778.032568,0.200000,0.167751
778.066076,-0.004545,0.074793
778.099584,-0.025000,0.038753
778.133092,0.047727,0.051363
778.166599,0.045455,0.050820
778.200107,0.345455,0.091136
778.233613,-0.093182,0.055705
778.267120,0.088636,0.140850
778.300626,0.229545,0.037397
778.334132,-0.186364,0.064403
778.367638,0.040909,0.124545
778.401144,0.106818,0.235496
778.434649,0.124242,0.037206
778.468154,0.090909,0.032141
778.501659,0.013636,0.129106
778.535163,-0.045455,0.022727
778.568668,0.438636,0.135923
778.602172,-0.004545,0.113249
778.635675,-0.393182,0.055982
778.669179,-0.045455,0.075378
778.702682,0.000000,0.055670
778.736185,0.070455,0.020423
778.769688,0.062121,0.066920
778.803190,0.031061,0.049101
778.836692,0.275000,0.200216
778.870194,-0.002273,0.056625
778.903696,0.161364,0.036699
778.937197,0.217424,0.074369
778.970698,-0.022727,0.019682
779.004199,0.045455,0.050820
779.037699,-0.025000,0.038753
779.071200,0.252273,0.193392
779.104700,0.302273,0.298643
779.138199,-0.052273,0.073881
779.171699,0.045455,0.050820
779.205198,0.202273,0.131362
779.238697,0.115909,0.103422
779.272196,0.095455,0.035428
779.305694,-0.234091,0.041706
779.339192,0.113636,0.074516
779.372690,0.252273,0.102670
779.406188,0.384091,0.280023
779.439685,0.025000,0.067831
779.473182,-0.163636,0.050206
779.506679,0.115909,0.019117
779.540176,-0.095455,0.107637
779.573672,-0.306818,0.066988
779.607168,0.093182,0.064313
779.640664,0.209091,0.080930
779.674160,0.040909,0.078828
779.707655,0.068182,0.098412
779.741150,0.047727,0.023918
779.774644,0.181818,0.064282
779.808139,0.161364,0.036699
779.841633,-0.047727,0.068588
779.875127,0.020455,0.060163
779.908621,-0.004545,0.098622
779.942114,-0.140909,0.051975
779.975607,0.686364,0.275394
780.009100,-0.350000,0.023509
780.042593,0.070455,0.113198
780.076085,-0.254545,0.015746
780.109577,0.136364,0.068182
780.143069,0.088636,0.073320
780.176560,-0.025000,0.038753
780.210052,0.068182,0.037689
780.243543,-0.124242,0.049167
780.277033,-0.118182,0.060473
780.310524,-0.236364,0.073011
780.344014,-0.062121,0.018603
780.377504,0.062121,0.049114
780.410994,0.018182,0.160191
780.444483,0.138636,0.050347
780.477972,0.345455,0.136515
780.511461,0.000000,0.055670
780.544950,-0.143182,0.071753
780.578438,0.134091,0.105400
780.611926,0.002273,0.033767
780.645414,-0.025000,0.038753
780.678902,0.304545,0.197440
780.712389,0.068182,0.037689
780.745876,0.184091,0.106133
780.779363,0.138636,0.021651
780.812849,0.000000,0.032141
780.846335,-0.050000,0.053926
780.879821,0.045455,0.022727
780.913307,0.111364,0.088629
780.946792,0.184091,0.054770
780.980277,0.140909,0.099664
781.013762,0.093182,0.055705
781.047247,-0.047727,0.023918
781.080731,0.115909,0.081017
781.114215,-0.062121,0.018603
781.147699,0.062121,0.103328
781.181183,-0.002273,0.124912
781.214666,-0.070455,0.067449
781.248149,-0.045455,0.099066
781.281632,0.095455,0.057631
781.315114,0.306818,0.141362
781.348596,0.909091,0.684087
781.382078,0.163636,0.038569
781.415560,0.031061,0.018568
781.449041,0.552273,0.284107
781.482522,0.563636,0.314984
781.516003,-0.025000,0.087751
781.549484,0.452273,0.371511
781.582964,0.131818,0.097569
781.616444,0.252273,0.092059
781.649924,0.045455,0.081944
781.683404,-0.170455,0.116304
781.716883,0.000000,0.055670
781.750362,0.118182,0.060473
781.783841,0.068182,0.037689
781.817319,0.040909,0.085129
781.850797,0.043182,0.052359
781.884275,-0.031061,0.018568
781.917753,0.043182,0.094551
781.951230,0.086364,0.099664
781.984707,0.068182,0.087286
782.018184,-0.025000,0.067831
782.051661,-0.184091,0.054770
782.085137,0.093182,0.032201
782.118613,0.163636,0.074966
782.152089,0.254545,0.035791
782.185564,0.090909,0.032141
782.219040,0.302273,0.037119
782.252515,0.350000,0.082165
782.285989,0.304545,0.119118
782.319464,-0.163636,0.050206
782.352938,0.134091,0.100380
782.386412,0.295455,0.230377
782.419885,-0.209091,0.037206
782.453359,-0.325000,0.019911
782.486832,0.272727,0.085038
782.520305,0.310606,0.103528
782.553777,0.068182,0.211681
782.587249,-0.372727,0.007873
782.620721,-0.677273,0.035428
782.654193,0.000000,0.032141
782.687665,0.090909,0.045455
782.721136,0.154545,0.173503
782.754607,0.525000,0.374695
782.788077,-0.027273,0.069976
782.821548,0.315909,0.175909
782.855018,0.086364,0.239695
782.888488,0.020455,0.081968
782.921957,0.347727,0.034970
782.955427,-0.186364,0.032381
782.988896,-0.122727,0.093900
783.022365,0.250000,0.098412
783.055833,-0.068182,0.037689
783.089301,-0.115909,0.019117
783.122769,-0.062121,0.098202
783.156237,0.322727,0.133357
783.189704,-0.062121,0.066920
783.223172,0.140909,0.040846
783.256638,0.147727,0.252761
783.290105,0.429545,0.319726
783.323571,0.329545,0.108253
783.357037,0.109091,0.111526
783.390503,-0.093182,0.055705
783.423969,0.202273,0.100123
783.457434,0.225000,0.115233
783.490899,0.047727,0.023918
783.524364,0.206818,0.125531
783.557828,0.445455,0.121373
783.591292,0.431818,0.247665
783.624756,0.204545,0.113067
783.658220,0.320455,0.158289
783.691683,-0.186364,0.064403
783.725146,0.154545,0.298308
783.758609,-0.093182,0.055705
783.792072,0.138636,0.093452
783.825534,0.163636,0.021320
783.858996,-0.045455,0.039365
783.892458,0.090909,0.032141
783.925919,0.088636,0.073320
783.959381,-0.100000,0.092375
783.992842,-0.215909,0.095583
784.026302,0.234091,0.100019
784.059763,-0.143182,0.078623
784.093223,-0.043182,0.069337
784.126683,0.306818,0.092842
784.160142,0.300000,0.125062
784.193601,-0.002273,0.056625
784.227060,-0.004545,0.059396
784.260519,0.186364,0.064403
784.293978,0.020455,0.050858
784.327436,0.068182,0.037689
784.360894,0.186364,0.055809
784.394352,0.025000,0.038753
784.427809,-0.045455,0.039365
784.461266,0.115909,0.049311
784.494723,0.163636,0.067726
784.528180,-0.124242,0.080930
784.561636,0.155303,0.066988
784.595092,0.479545,0.240424
784.628548,0.025000,0.038753
784.662003,0.229545,0.067065
784.695458,0.045455,0.039365
784.728913,-0.093182,0.055705
784.762368,0.275000,0.110426
784.795823,0.177273,0.172533
784.829277,-0.062121,0.018603
784.862731,-0.125000,0.112924
784.896184,0.000000,0.000000
784.929637,-0.217424,0.019117
784.963091,0.181818,0.064282
784.996543,0.295455,0.206743
785.029996,0.084091,0.116924
785.063448,0.511364,0.209150
785.096900,0.365909,0.149737
785.130352,0.372727,0.225126
785.163803,-0.022727,0.019682
785.197254,0.115909,0.019117
785.230705,0.059091,0.188335
785.264156,-0.168182,0.074239
785.297606,-0.090909,0.055670
785.331056,0.062121,0.037137
785.364506,0.045455,0.022727
785.397955,-0.027273,0.089420
785.431405,0.155303,0.049206
785.464854,-0.238636,0.123832
785.498302,0.043182,0.094551
785.531751,0.045455,0.022727
785.565199,-0.025000,0.038753
785.598647,-0.025000,0.067831
785.632094,-0.215909,0.090017
785.665542,0.086364,0.104718
785.698989,0.209091,0.049167
785.732436,0.022727,0.049533
785.765882,-0.072727,0.076331
785.799328,0.281818,0.038836
785.832774,0.050000,0.077506
785.866220,0.186364,0.032381
785.899665,-0.163636,0.098753
785.933111,0.002273,0.056625
785.966555,-0.325000,0.113107
786.000000,0.118182,0.039886
786.033444,0.115909,0.074369
786.066888,0.065909,0.068588
786.100332,0.663636,0.177039
786.133776,0.068182,0.059047
786.167219,-0.165909,0.089672
786.200662,0.140909,0.051975
786.234104,-0.115909,0.103422
786.267547,-0.259091,0.055064
786.300989,-0.004545,0.059396
786.334431,0.093182,0.055705
786.367872,-0.025000,0.087751
786.401314,-0.072727,0.041161
786.434755,0.031061,0.018568
786.468196,0.415909,0.072469
786.501636,0.497727,0.461485
786.535076,0.086364,0.127009
786.568516,0.229545,0.074369
786.601956,0.022727,0.049533
786.635395,0.161364,0.086863
786.668834,-0.062121,0.049114
786.702273,0.000000,0.032141
786.735712,-0.050000,0.043301
786.769150,-0.052273,0.107967
786.802588,-0.440909,0.085854
786.836026,0.277273,0.197649
786.869463,0.631818,0.273890
786.902900,0.927273,0.613922
786.936337,1.681818,0.635145
786.969774,1.068182,0.161907
787.003210,0.434848,0.113249
787.036646,0.768182,0.165191
787.070082,-0.115909,0.037397
787.103518,0.181818,0.184637
787.136953,-0.165909,0.119329
787.170388,0.022727,0.098412
787.203823,0.393182,0.055982
787.237257,-0.022727,0.081153
787.270691,-0.090909,0.032141
787.304125,0.343182,0.120706
787.337559,0.118182,0.039886
787.370992,-0.422727,0.099248
787.404425,0.018182,0.070711
787.437858,0.206818,0.154992
787.471290,-0.236364,0.125145
787.504723,0.040909,0.085129
787.538155,0.209091,0.103353
787.571586,0.086364,0.088695
787.605018,-0.047727,0.051363
787.638449,0.022727,0.019682
787.671880,-0.097727,0.069188
787.705310,0.065909,0.051363
787.738741,-0.050000,0.070528
787.772171,0.340909,0.193849
787.805600,-0.031061,0.066910
787.839030,0.065909,0.068588
787.872459,0.070455,0.049832
787.905888,0.456818,0.165781
787.939317,-0.027273,0.062158
787.972745,-0.050000,0.043301
788.006173,0.217424,0.037397
788.039601,0.279545,0.055982
788.073028,-0.045455,0.068182
788.106456,0.325000,0.049624
788.139883,0.020455,0.099085
788.173309,0.040909,0.071978
788.206736,0.093182,0.064313
788.240162,0.104545,0.168657
788.273588,0.111364,0.068963
788.307013,0.143182,0.071753
788.340439,0.022727,0.074516
788.373864,0.002273,0.124912
788.407288,0.229545,0.121771
788.440713,0.204545,0.081153
788.474137,0.209091,0.103353
788.507561,0.440909,0.147762
788.540985,0.131818,0.276891
788.574408,0.136364,0.093707
788.607831,0.234091,0.026577
788.641254,0.252273,0.065899
788.674677,-0.236364,0.073011
788.708099,-0.402273,0.098981
788.741521,1.273485,0.132653
788.774943,1.870455,0.394413
788.808364,2.018182,0.777419
788.841785,2.743182,0.794339
788.875206,0.415909,0.287630
788.908627,0.279545,0.111497
788.942047,0.113636,0.059047
788.975467,0.088636,0.073320
789.008887,-0.054545,0.181705
789.042306,-0.090909,0.136364
789.075726,0.093182,0.064313
789.109145,0.045455,0.075378
789.142563,0.140909,0.025206
789.175982,-0.256818,0.022355
789.209400,0.217424,0.103422
789.242817,0.165909,0.062521
789.276235,0.254545,0.035791
789.309652,0.165909,0.077298
789.343069,0.136364,0.281121
789.376486,0.254545,0.097701
789.409902,-0.093182,0.055705
789.443319,0.088636,0.086266
789.476735,-0.118182,0.039886
789.510150,0.181818,0.064282
789.543565,0.045455,0.022727
789.576980,-0.234091,0.041706
789.610395,0.000000,0.055670
789.643810,0.302273,0.074230
789.677224,-0.209091,0.092821
789.710638,0.155303,0.066988
789.744052,0.186364,0.085129
789.777465,-0.186364,0.003936
789.810878,0.109091,0.157590
789.844291,0.022727,0.081153
789.877703,0.186364,0.032381
789.911116,0.186364,0.111410
789.944528,0.111364,0.114107
789.977939,0.204545,0.103528
790.011351,-0.188636,0.058685
790.044762,0.109091,0.101843
790.078173,0.045455,0.081944
790.111583,0.625000,0.271957
790.144994,0.481818,0.228948
790.178404,-0.093182,0.032201
790.211813,-0.677273,0.173726
790.245223,0.177273,0.197649
790.278632,0.181818,0.085038
790.312041,-0.052273,0.107967
790.345450,-0.093182,0.032201
790.378858,0.159091,0.121861
790.412266,0.090909,0.106600
790.445674,-0.068182,0.037689
790.479081,-0.120455,0.055052
790.512488,0.161364,0.066679
790.545895,0.256818,0.122322
790.579302,0.225000,0.115233
790.612708,1.447727,0.282831
790.646115,4.686364,0.660434
790.679520,4.038636,0.777780
790.712926,1.801515,0.354626
790.746331,0.613636,0.225848
790.779736,0.300000,0.215945
790.813141,0.027273,0.110128
790.846545,0.068182,0.037689
790.879949,-0.188636,0.037119
790.913353,0.025000,0.038753
790.946757,0.134091,0.197489
790.980160,0.111364,0.159427
791.013563,0.229545,0.067065
791.046966,0.290909,0.191342
791.080368,-0.002273,0.033767
791.113771,-0.047727,0.040064
791.147173,0.272727,0.096424
791.180574,0.000000,0.032141
791.213976,-0.118182,0.113818
791.247377,0.131818,0.154863
791.280777,0.393182,0.096604
791.314178,0.000000,0.055670
791.347578,0.062121,0.037137
791.380978,0.088636,0.086266
791.414378,0.363636,0.213201
791.447777,-0.281818,0.108806
791.481176,0.020455,0.050858
791.514575,-0.097727,0.076289
791.547973,0.113636,0.081153
791.581372,0.161364,0.117233
791.614770,0.204545,0.103528
791.648167,0.068182,0.037689
791.681565,0.206818,0.057977
791.714962,0.234091,0.041706
791.748359,0.136364,0.068182
791.781755,0.031061,0.049101
791.815152,0.093182,0.055705
791.848548,0.068182,0.067228
791.881943,0.181818,0.132522
791.915339,-0.072727,0.076331
791.948734,0.159091,0.049533
791.982129,0.322727,0.116841
792.015523,0.093182,0.032201
792.048918,0.184091,0.030555
792.082312,-0.072727,0.099793
792.115705,0.310606,0.067228
792.149099,0.227273,0.104149
792.182492,0.154545,0.133066
792.215885,-0.377273,0.080898
792.249278,0.020455,0.039414
792.282670,0.018182,0.105822
792.316062,0.086364,0.127009
792.349454,0.161364,0.058421
792.382845,-0.002273,0.056625
792.416236,0.259091,0.150533
792.449627,0.504545,0.143074
792.483018,1.363636,0.248965
792.516408,4.302273,0.969277
792.549798,4.604545,0.677513
792.583188,3.323485,0.332632
792.616578,0.931818,0.275319
792.649967,0.341667,0.049624
792.683356,0.645455,0.324388
792.716745,0.090909,0.045455
792.750133,-0.002273,0.072612
792.783521,0.043182,0.052359
792.816909,0.297727,0.125119
792.850296,-0.031061,0.066910
792.883684,-0.186364,0.032381
792.917071,-0.002273,0.147653
792.950457,0.093182,0.032201
792.983844,-0.161364,0.036699
793.017230,0.090909,0.055670
793.050616,0.093182,0.085060
793.084001,-0.097727,0.076289
793.117386,-0.031061,0.018568
793.150771,0.070455,0.038081
793.184156,0.062121,0.049114
793.217541,0.297727,0.112051
793.250925,-0.027273,0.069976
793.284309,0.248485,0.067113
793.317692,-0.004545,0.067535
793.351075,0.252273,0.190703
793.384458,0.186364,0.003936
793.417841,-0.031818,0.119982
793.451223,0.045455,0.099066
793.484606,0.138636,0.075060
793.517988,0.131818,0.227761
793.551369,0.031061,0.018568
793.584750,0.502273,0.276590
793.618131,0.295455,0.182880
793.651512,-0.070455,0.081335
793.684893,0.025000,0.038753
793.718273,0.072727,0.052223
793.751653,-0.045455,0.068182
793.785032,-0.140909,0.040846
793.818411,0.111364,0.130968
793.851790,-0.209091,0.037206
793.885169,-0.140909,0.025206
793.918548,-0.052273,0.080570
793.951926,0.631818,0.307642
793.985304,0.134091,0.149910
794.018681,0.427273,0.266482
794.052059,0.247727,0.350256
794.085436,0.062121,0.049114
794.118812,0.062121,0.037137
794.152189,-0.025000,0.038753
794.185565,0.136364,0.050820
794.218941,0.138636,0.081652
794.252317,0.065909,0.060591
794.285692,-0.115909,0.049311
794.319067,0.386364,0.165066
794.352442,2.515909,0.952776
794.385816,5.890909,0.578578
794.419190,7.581818,0.838978
794.452564,10.250000,0.477137
794.485938,4.006818,0.789872
794.519311,0.248485,0.067113
794.552684,0.372727,0.033091
794.586057,0.043182,0.069337
794.619429,0.022727,0.037689
794.652802,0.186364,0.085129
794.686173,0.341667,0.067295
794.719545,0.300000,0.102348
794.752916,-0.231818,0.113249
794.786287,-0.284091,0.157766
794.819658,-0.284091,0.079342
794.853029,-0.002273,0.046619
794.886399,-0.062121,0.074239
794.919769,-0.047727,0.023918
794.953138,-0.070455,0.049832
794.986508,-0.279545,0.064553
795.019877,-0.045455,0.039365
795.053245,0.084091,0.218546
795.086614,0.068182,0.059047
795.119982,0.163636,0.021320
795.153350,-0.047727,0.051363
795.186718,0.068182,0.098412
795.220085,0.140909,0.069048
795.253452,0.062121,0.018603
795.286819,0.161364,0.036699
795.320185,-0.052273,0.121474
795.353551,-0.093182,0.055705
795.386917,-0.025000,0.067831
795.420283,-0.090909,0.085038
795.453648,-0.009091,0.165956
795.487013,-0.031061,0.049101
795.520378,0.047727,0.023918
795.553742,-0.029545,0.129501
795.587107,-0.050000,0.043301
795.620471,0.000000,0.115887
795.653834,0.279545,0.032679
795.687197,0.047727,0.040064
795.720560,-0.025000,0.059732
795.753923,0.115909,0.049311
795.787286,0.124242,0.037206
795.820648,0.040909,0.106673
795.854010,-0.284091,0.072541
795.887371,0.277273,0.105700
795.920733,0.020455,0.099085
795.954094,0.000000,0.032141
795.987454,0.022727,0.113067
796.020815,0.086364,0.082666
796.054175,0.293182,0.153485
796.087535,0.365909,0.094823
796.120894,0.579545,0.207911
796.154254,0.155303,0.148490
796.187613,0.468182,0.076971
796.220971,1.363636,0.316554
796.254330,4.459091,0.496074
796.287688,14.194697,0.658192
796.321046,20.127273,1.394707
796.354403,14.225758,1.252161
796.387761,4.100000,0.696998
796.421118,0.931818,0.059047
796.454474,0.300000,0.185028
796.487831,0.155303,0.112924
796.521187,0.138636,0.093452
796.554543,0.045455,0.022727
796.587898,0.059091,0.151899
796.621254,0.124242,0.018741
796.654609,-0.138636,0.075060
796.687963,0.062121,0.080898
796.721318,-0.372727,0.056224
796.754672,-0.528030,0.050347
796.788026,0.115909,0.112970
796.821379,-0.070455,0.081335
796.854732,0.256818,0.022355
796.888085,0.088636,0.065899
796.921438,0.031061,0.037119
796.954790,-0.120455,0.071392
796.988142,0.165909,0.077298
797.021494,0.140909,0.082666
797.054846,-0.217424,0.019117
797.088197,0.061364,0.199518
797.121548,0.045455,0.113636
797.154899,-0.031061,0.037119
797.188249,-0.062121,0.066920
797.221599,0.140909,0.051975
797.254949,0.090909,0.085038
797.288298,0.372727,0.170257
797.321648,0.275000,0.131754
797.354996,-0.093182,0.195517
797.388345,0.304545,0.114700
797.421693,0.204545,0.103528
797.455041,-0.161364,0.098037
797.488389,0.281818,0.108806
797.521737,0.095455,0.086334
797.555084,0.270455,0.368440
797.588431,-0.104545,0.251309
797.621777,0.040909,0.085129
797.655124,0.084091,0.137246
797.688470,0.345455,0.128725
797.721815,0.188636,0.103322
797.755161,0.136364,0.104149
797.788506,0.486364,0.101309
797.821851,0.217424,0.103422
797.855196,0.345455,0.064603
797.888540,0.361364,0.199441
797.921884,-0.068182,0.087286
797.955228,-0.025000,0.067831
797.988571,0.784091,0.361990
798.021914,0.186364,0.085129
798.055257,-0.027273,0.114722
798.088599,1.318182,0.573610
798.121942,2.981818,0.250701
798.155284,7.361364,0.609331
798.188625,21.740909,0.379396
798.221967,29.631818,2.187213
798.255308,20.313636,0.748425
798.288649,5.466667,0.196140
798.321989,1.366667,0.531196
798.355329,0.456818,0.394439
798.388669,-0.027273,0.219739
798.422009,-0.052273,0.073881
798.455348,0.295455,0.230377
798.488687,-0.002273,0.033767
798.522026,0.159091,0.108402
798.555365,0.000000,0.032141
798.588703,-0.075000,0.072469
798.622041,0.040909,0.085129
798.655378,0.186364,0.032381
798.688716,0.465909,0.251224
798.722053,0.322727,0.173726
798.755389,0.272727,0.140100
798.788726,0.043182,0.052359
798.822062,0.181818,0.143740
798.855398,0.161364,0.036699
798.888733,0.111364,0.088629
798.922069,0.154545,0.220677
798.955404,-0.027273,0.053203
798.988738,0.088636,0.065899
799.022073,0.272727,0.160706
799.055407,0.375000,0.076018
799.088741,0.045455,0.099066
799.122074,0.252273,0.047714
799.155408,0.461364,0.093341
799.188741,-0.120455,0.071392
799.222073,-0.090909,0.096424
799.255406,0.025000,0.038753
799.288738,0.154545,0.151235
799.322069,0.061364,0.104317
799.355401,-0.209091,0.066959
799.388732,0.206818,0.133507
799.422063,0.393182,0.208383
799.455394,0.015909,0.103571
799.488724,0.018182,0.084060
799.522054,0.315909,0.303141
799.555384,0.204545,0.113067
799.588713,0.068182,0.148599
799.622042,-0.072727,0.345634
799.655371,-0.052273,0.097932
799.688700,-0.327273,0.070124
799.722028,0.252273,0.065899
799.755356,0.211364,0.114243
799.788684,0.002273,0.072612
799.822011,-0.279545,0.064553
799.855338,0.445455,0.121373
799.888665,0.140909,0.051975
799.921992,0.165909,0.110333
799.955318,0.186364,0.085129
799.988644,1.615909,0.336952
800.021969,3.006818,0.187231
800.055295,12.134091,1.010101
800.088620,42.025000,1.424314
800.121945,58.704545,1.496337
800.155269,45.278788,1.251209
800.188593,13.175000,0.527971
800.221917,1.521970,0.269553
800.255241,-0.072727,0.109658
800.288564,0.372727,0.064763
800.321887,0.606818,0.270891
800.355210,0.263636,0.197766
800.388532,0.361364,0.155823
800.421854,-0.022727,0.103528
800.455176,-0.090909,0.085038
800.488498,0.186364,0.055809
800.521819,0.700000,0.242959
800.555140,-0.465909,0.147618
800.588461,-0.211364,0.069188
800.621781,0.155303,0.049206
800.655101,-0.118182,0.113818
800.688421,-0.341667,0.049624
800.721740,0.063636,0.153943
800.755060,0.186364,0.140156
800.788379,-0.025000,0.067831
800.821697,0.045455,0.022727
800.855015,0.431818,0.241327
800.888334,0.093182,0.032201
800.921651,-0.093182,0.032201
800.954969,-0.045455,0.050820
800.988286,-0.093182,0.032201
801.021603,0.465909,0.195755
801.054919,0.062121,0.037137
801.088235,0.018182,0.070711
801.121551,-0.062121,0.066920
801.154867,0.106818,0.142599
801.188183,0.250000,0.108402
801.221498,0.165909,0.062521
801.254812,0.522727,0.209227
801.288127,0.020455,0.050858
801.321441,0.115909,0.019117
801.354755,0.154545,0.107277
801.388069,0.272727,0.115887
801.421382,-0.807576,0.051975
801.454695,0.204545,0.180034
801.488008,0.456818,0.394439
801.521320,0.488636,0.158583
801.554632,0.136364,0.068182
801.587944,0.211364,0.069188
801.621256,0.186364,0.032381
801.654567,0.409091,0.241594
801.687878,-0.062121,0.049114
801.721189,0.206818,0.048252
801.754499,0.000000,0.032141
801.787809,0.124242,0.098228
801.821119,0.254545,0.015746
801.854428,0.593182,0.215499
801.887737,0.714394,0.344007
801.921046,1.297727,0.151282
801.954355,8.956818,1.061027
801.987663,27.981818,1.374818
802.020971,64.684091,1.488785
802.054279,66.764773,1.876176
802.087586,34.974242,0.930773
802.120894,7.454545,1.078049
802.154200,1.511364,0.364833
802.187507,1.043182,0.328806
802.220813,0.217424,0.112970
802.254119,0.465909,0.179225
802.287425,0.124242,0.112907
802.320730,0.070455,0.020423
802.354035,-0.434848,0.020706
802.387340,0.320455,0.097774
802.420644,0.040909,0.147342
802.453949,-0.124242,0.049167
802.487252,0.502273,0.160879
802.520556,0.040909,0.096504
802.553859,0.113636,0.059047
802.587162,0.090909,0.045455
802.620465,0.124242,0.018741
802.653767,0.384091,0.311461
802.687069,0.184091,0.078096
802.720371,0.250000,0.247665
802.753673,0.120455,0.115591
802.786974,0.593182,0.512200
802.820275,0.927273,0.061322
802.853576,0.281818,0.075103
802.886876,-0.050000,0.070528
802.920176,0.045455,0.068182
802.953476,0.086364,0.118596
802.986775,0.440909,0.140597
803.020074,0.234091,0.026577
803.053373,-0.002273,0.033767
803.086672,0.093182,0.032201
803.119970,0.000000,0.064282
803.153268,0.129545,0.128097
803.186565,0.593182,0.486336
803.219863,-0.138636,0.038753
803.253160,0.413636,0.128625
803.286457,0.454545,0.205804
803.319753,-0.120455,0.111033
803.353049,-0.190909,0.128001
803.386345,0.279545,0.005905
803.419641,-0.031061,0.074230
803.452936,-0.124242,0.018741
803.486231,0.279545,0.032679
803.519525,0.113636,0.133975
803.552820,0.093182,0.195517
803.586114,0.272727,0.124482
803.619408,0.155303,0.092842
803.652701,0.254545,0.035791
803.685994,0.254545,0.015746
803.719287,0.434848,0.162034
803.752580,0.496970,0.158896
803.785872,0.668182,0.337307
803.819164,0.434848,0.067535
803.852456,4.311364,0.394282
803.885747,17.165152,1.344385
803.919038,58.331818,1.946212
803.952329,109.461364,3.572426
803.985620,131.865909,3.075237
804.018910,45.140909,1.109135
804.052200,8.231061,0.587924
804.085489,1.147727,0.529447
804.118779,0.528030,0.145361
804.152068,0.488636,0.144970
804.185357,0.336364,0.239533
804.218645,0.584091,0.164152
804.251933,0.093182,0.085060
804.285221,0.509091,0.203177
804.318508,0.779545,0.321225
804.351796,0.838636,0.117233
804.385083,0.186364,0.003936
804.418369,-0.143182,0.124415
804.451656,0.529545,0.224031
804.484942,-0.068182,0.037689
804.518227,0.331818,0.301743
804.551513,0.409091,0.277422
804.584798,0.179545,0.141216
804.618083,0.334091,0.380889
804.651367,0.138636,0.067831
804.684652,0.138636,0.081652
804.717936,-0.352273,0.102115
804.751219,0.156818,0.109722
804.784503,-0.072727,0.104841
804.817786,0.275000,0.184087
804.851068,0.488636,0.066988
804.884351,0.959091,0.262724
804.917633,0.593182,0.330842
804.950915,0.204545,0.081153
804.984196,0.093182,0.085060
805.017478,0.962879,0.258600
805.050759,0.427273,0.254586
805.084039,0.179545,0.167947
805.117320,0.247727,0.274151
805.150600,0.431818,0.247665
805.183879,0.047727,0.068588
805.217159,0.000000,0.055670
805.250438,0.295455,0.098412
805.283717,0.429545,0.373383
805.316995,0.477273,0.286355
805.350274,0.440909,0.111965
805.383552,0.436364,0.146727
805.416829,0.156818,0.152979
805.450107,0.625000,0.221737
805.483384,0.279545,0.085242
805.516660,0.429545,0.266896
805.549937,0.779545,0.351919
805.583213,0.463636,0.104940
805.616489,0.279545,0.032679
805.649764,0.155303,0.049206
805.683040,0.929545,0.177225
805.716315,0.465909,0.085605
805.749589,1.302273,0.289866
805.782864,5.750000,0.349697
805.816138,34.184091,1.934064
805.849411,119.956061,3.044935
805.882685,248.152273,0.913135
805.915958,276.584091,2.685741
805.949231,128.781818,6.726440
805.982504,21.773485,2.066829
806.015776,3.268182,0.800449
806.049048,0.188636,0.137622
806.082319,-0.011364,0.226348
806.115591,-0.029545,0.086446
806.148862,-0.031818,0.175854
806.182133,0.161364,0.148351
806.215403,0.124242,0.018741
806.248673,0.161364,0.086863
806.281943,-0.025000,0.067831
806.315213,0.061364,0.134586
806.348482,0.040909,0.124545
806.381751,0.131818,0.140891
806.415019,-0.170455,0.154458
806.448288,0.163636,0.050206
806.481556,0.252273,0.065899
806.514823,0.438636,0.135923
806.548091,0.590152,0.214370
806.581358,0.413636,0.187455
806.614625,0.420455,0.215235
806.647891,0.161364,0.086863
806.681158,0.231818,0.081407
806.714424,0.020455,0.081968
806.747689,0.506818,0.197567
806.780955,0.179545,0.161679
806.814220,0.393182,0.160815
806.847484,0.776515,0.354420
806.880749,0.802273,0.341187
806.914013,0.318182,0.118094
806.947277,0.000000,0.115887
806.980540,0.047727,0.051363
807.013803,0.248485,0.148547
807.047066,0.031061,0.018568
807.080329,0.124242,0.049167
807.113591,0.250000,0.074516
807.146853,0.310606,0.067228
807.180115,0.000000,0.064282
807.213376,0.513636,0.153926
807.246637,0.115909,0.019117
807.279898,-0.002273,0.056625
807.313159,0.395455,0.074239
807.346419,0.403788,0.193926
807.379679,0.234091,0.083095
807.412938,0.688636,0.432635
807.446198,0.327273,0.189497
807.479457,0.217424,0.049311
807.512715,0.738636,0.221737
807.545974,0.515909,0.338680
807.579232,0.184091,0.160396
807.612490,0.590152,0.050654
807.645747,0.893182,0.196519
807.679004,1.277273,0.548114
807.712261,3.758333,0.682147
807.745518,21.134091,0.896304
807.778774,102.677273,3.180652
807.812030,336.793182,8.418487
807.845285,491.970455,4.753211
807.878541,342.784848,9.883805
807.911796,70.119318,2.245222
807.945051,8.076515,1.632092
807.978305,2.086364,0.399658
808.011559,0.248485,0.103453
808.044813,0.528030,0.194059
808.078066,0.300000,0.116509
808.111320,0.031061,0.080890
808.144573,0.363636,0.316554
808.177825,0.375000,0.109440
808.211078,0.177273,0.127819
808.244330,0.452273,0.281311
808.277581,0.714394,0.075745
808.310833,1.361364,0.609416
808.344084,0.554545,0.346559
808.377335,0.547727,0.273680
808.410585,0.661364,0.317782
808.443835,-0.097727,0.088804
808.477085,0.186364,0.032381
808.510335,0.000000,0.032141
808.543584,0.438636,0.077963
808.576833,0.088636,0.086266
808.610082,0.062121,0.037137
808.643330,-0.170455,0.313428
808.676578,0.277273,0.100695
808.709826,0.186364,0.225023
808.743073,0.275000,0.184087
808.776320,0.159091,0.093015
808.809567,0.093182,0.032201
808.842814,0.802273,0.209988
808.876060,0.159091,0.067228
808.909306,0.528030,0.098824
808.942552,0.225000,0.115233
808.975797,0.227273,0.122390
809.009042,0.227273,0.118094
809.042287,0.302273,0.158550
809.075531,0.155303,0.098248
809.108775,0.070455,0.074715
809.142019,0.279545,0.111497
809.175262,0.490909,0.101436
809.208506,0.683333,0.291999
809.241748,0.247727,0.114784
809.274991,0.340909,0.193849
809.308233,0.111364,0.189071
809.341475,0.393182,0.055982
809.374717,1.013636,0.416765
809.407958,0.593182,0.187286
809.441199,0.695455,0.279712
809.474440,0.222727,0.185795
809.507680,0.134091,0.139189
809.540921,1.352273,0.510321
809.574160,1.022727,0.525561
809.607400,1.163636,0.673617
809.640639,2.112121,0.742914
809.673878,5.808333,0.767969
809.707117,33.913636,1.614185
809.740355,146.513636,4.016204
809.773593,390.777273,9.434212
809.806831,551.512121,12.085232
809.840068,309.456818,8.512018
809.873305,51.296591,1.083635
809.906542,8.639394,1.252796
809.939778,3.497727,0.569774
809.973015,2.275000,0.976270
810.006250,1.481818,0.200052
810.039486,0.918182,0.209929
810.072721,0.736364,0.277347
810.105956,1.245455,0.249669
810.139191,0.993182,0.189970
810.172425,0.806818,0.381106
810.205659,0.434848,0.158815
810.238893,0.431818,0.191166
810.272126,0.652273,0.274960
810.305359,1.306818,0.519599
810.338592,0.168182,0.327675
810.371825,0.993939,0.159933
810.405057,0.372727,0.033091
810.438289,0.838636,0.232450
810.471520,0.217424,0.037397
810.504751,0.409091,0.145526
810.537982,0.297727,0.170542
810.571213,0.217424,0.188386
810.604443,-0.259091,0.106285
810.637673,0.138636,0.021651
810.670903,0.776515,0.250194
810.704133,0.229545,0.074369
810.737362,0.718182,0.206955
810.770591,0.502273,0.213331
810.803819,-0.513636,0.044710
810.837047,0.341667,0.081208
810.870275,0.488636,0.209150
810.903503,0.434848,0.206843
810.936730,-0.054545,0.128404
810.969957,0.229545,0.092897
811.003184,-0.068182,0.037689
811.036410,0.522727,0.375344
811.069636,0.279545,0.251100
811.102862,0.093182,0.085060
811.136087,-0.302273,0.112878
811.169312,0.327273,0.166267
811.202537,-0.124242,0.066959
811.235762,0.372727,0.195666
811.268986,0.363636,0.222681
811.302210,0.479545,0.208184
811.335433,-0.122727,0.104323
811.368656,0.217424,0.098300
811.401879,1.347727,0.530947
811.435102,1.202273,0.485113
811.468324,1.213636,0.278602
811.501546,1.693182,0.296926
811.534768,-0.195455,0.155926
811.567990,0.154545,0.173503
811.601211,1.172727,0.185920
811.634432,5.981818,0.982723
811.667652,32.686364,1.538626
811.700872,120.018182,2.940533
811.734092,314.364394,7.101786
811.767312,426.120455,9.328998
811.800531,249.343182,6.093326
811.833750,42.739394,1.948521
811.866969,4.006818,0.595206
811.900187,0.502273,0.330998
811.933405,0.363636,0.394958
811.966623,-0.341667,0.049624
811.999840,0.529545,0.258300
812.033057,0.509091,0.252999
812.066274,-0.031818,0.175854
812.099490,0.859091,0.468882
812.132707,0.786364,0.326411
812.165923,0.620455,0.193606
812.199138,0.550000,0.263509
812.232353,0.065909,0.068588
812.265568,0.609091,0.231640
812.298783,-0.031061,0.049101
812.331997,0.384091,0.197881
812.365211,0.140909,0.159464
812.398425,0.206818,0.234551
812.431638,-0.155303,0.066988
812.464851,0.300000,0.085884
812.498064,0.025000,0.201886
812.531277,1.061364,0.503945
812.564489,0.088636,0.107583
812.597701,-0.217424,0.067065
812.630912,0.156818,0.152979
812.664123,-0.097727,0.061269
