#{
#    "background_file": "Backgrounds\\\\bg_785.995nm_13bin_219st_244en_10.0s_110g_4x_13_seq.txt",
#    "ccd_image_settings": [
#        1,
#        13,
#        1,
#        1600,
#        219,
#        244
#    ],
#    "ccd_temperature": "-87",
#    "cdRatios": {
#        "mean": 0.945127008447389,
#        "std": 0.008610001122653763
#    },
#    "center_lambda": 786.0,
#    "comments": "",
#    "dark_region": 33.217341721637936,
#    "date": "10/22/20 17:31:52PM",
#    "eff_field": 1.5,
#    "exposure": 10.0,
#    "fel_lambda": "15.0",
#    "fel_pol": "H",
#    "fel_pulses": 43,
#    "fel_pyro_cal": "0.012",
#    "fel_reprate": "1.07",
#    "fel_transmission": "1.0",
#    "fel_transmission_fits": {
#        "A": 1.0,
#        "C": 0.0,
#        "Mu": 0.0
#    },
#    "fieldInt": {
#        "mean": 5277.203928030303,
#        "std": 155.63696010921564
#    },
#    "fieldStrength": {
#        "mean": 33.32812878787878,
#        "std": 0.4934701831267591
#    },
#    "fpTime": {
#        "mean": 1.0818934881014817,
#        "std": 0.06337086607473691
#    },
#    "gain": 110,
#    "grating": 3,
#    "images_in_sequence": [
#        "hsg_820nm_c123_a90_HAna469.txt",
#        "hsg_820nm_c123_a90_HAna470.txt",
#        "hsg_820nm_c123_a90_HAna471.txt",
#        "hsg_820nm_c123_a90_HAna472.txt"
#    ],
#    "nir_lambda": "819.98",
#    "nir_pola": "90",
#    "nir_polg": "0",
#    "nir_power": "100.0",
#    "pulseEnergies": {
#        "mean": 1.6129015151515154,
#        "std": 0.057255707298459496
#    },
#    "pyroVoltage": {
#        "mean": 0.14225613886258417,
#        "std": 0.006049605798434119
#    },
#    "rotatorAngle": 45.0,
#    "sample_Temp": "55",
#    "sample_name": "L001218.C1",
#    "series": "820_Fan",
#    "slits": "60",
#    "spec_step": "",
#    "window_trans": 0.92,
#    "y_max": 2,
#    "y_min": 1
#}
#
#
#
#
#
#
#
#
#
#
#
#
#
#
#
#
#
#
#
#
#
#
#
#
#
#
Wavelength,Signal,error
nm,arb. u.,arb.u.
Wavelength,820_Fan,error
759.194366,0.031061,0.080890
759.228015,0.043182,0.052359
759.261663,0.959091,0.294255
759.295311,-0.140909,0.025206
759.328959,0.690909,0.247216
759.362607,0.136364,0.152459
759.396254,0.040909,0.160754
759.429901,-0.115909,0.067065
759.463548,0.310606,0.037689
759.497194,-0.140909,0.131012
759.530841,0.031061,0.066910
759.564487,0.047727,0.040064
759.598133,-0.027273,0.089420
759.631779,-0.072727,0.052223
759.665424,0.159091,0.081153
759.699069,0.379545,0.283105
759.732714,0.179545,0.125736
759.766359,0.186364,0.085129
759.800003,0.463636,0.069383
759.833648,0.320455,0.121346
759.867292,0.372727,0.210911
759.900935,0.093182,0.167022
759.934579,0.272727,0.195507
759.968222,-0.259091,0.078302
760.001865,0.000000,0.055670
760.035508,0.250000,0.098412
760.069151,0.111364,0.209791
760.102793,0.138636,0.021651
760.136435,-0.062121,0.037137
760.170077,-0.050000,0.095427
760.203718,-0.120455,0.055052
760.237360,-0.393182,0.085242
760.271001,-0.124242,0.074273
760.304642,0.461364,0.295339
760.338283,-0.184091,0.078096
760.371923,-0.186364,0.064403
760.405563,0.111364,0.159427
760.439203,0.163636,0.021320
760.472843,0.229545,0.037397
760.506482,-0.118182,0.088257
760.540122,-0.029545,0.092228
760.573761,0.802273,0.373010
760.607399,0.131818,0.116841
760.641038,0.086364,0.088695
760.674676,0.113636,0.087286
760.708314,0.124242,0.037206
760.741952,-0.031061,0.018568
760.775589,-0.004545,0.108593
760.809227,0.252273,0.218475
760.842864,-0.025000,0.059732
760.876501,-0.124242,0.098228
760.910137,0.254545,0.057854
760.943774,0.559091,0.085854
760.977410,-0.047727,0.162476
761.011046,0.000000,0.032141
761.044681,0.229545,0.171146
761.078317,-0.062121,0.018603
761.111952,0.062121,0.098202
761.145587,-0.027273,0.114722
761.179221,-0.217424,0.074369
761.212856,-0.422727,0.186128
761.246490,0.020455,0.060163
761.280124,0.231818,0.214204
761.313758,0.434848,0.259957
761.347391,0.159091,0.067228
761.381024,-0.331818,0.107253
761.414657,-0.118182,0.088257
761.448290,0.093182,0.064313
761.481923,0.095455,0.057631
761.515555,-0.027273,0.105333
761.549187,-0.234091,0.041706
761.582819,-0.248485,0.019285
761.616450,-0.309091,0.129206
761.650082,-0.140909,0.051975
761.683713,0.113636,0.081153
761.717344,0.090909,0.132522
761.750974,-0.403788,0.049832
761.784605,-0.372727,0.096745
761.818235,0.159091,0.193849
761.851865,-0.186364,0.032381
761.885494,-0.065909,0.109251
761.919124,0.310606,0.185683
761.952753,0.043182,0.052359
761.986382,0.179545,0.098037
762.020010,0.181818,0.055670
762.053639,-0.165909,0.042927
762.087267,0.279545,0.032679
762.120895,0.602273,0.252761
762.154523,0.000000,0.055670
762.188150,-0.206818,0.048252
762.221777,0.093182,0.055705
762.255404,-0.031061,0.018568
762.289031,-0.062121,0.049114
762.322658,-0.047727,0.040064
762.356284,-0.113636,0.087286
762.389910,-0.259091,0.090539
762.423536,0.065909,0.068588
762.457161,-0.093182,0.115904
762.490786,0.068182,0.059047
762.524411,0.093182,0.140114
762.558036,0.027273,0.089420
762.591661,-0.002273,0.056625
762.625285,-0.540909,0.081407
762.658909,-0.279545,0.032679
762.692533,-0.093182,0.055705
762.726157,-0.124242,0.018741
762.759780,0.038636,0.202218
762.793403,0.140909,0.025206
762.827026,-0.020455,0.060163
762.860649,0.155303,0.049206
762.894271,-0.186364,0.032381
762.927893,-0.155303,0.018844
762.961515,0.020455,0.155823
762.995137,0.047727,0.051363
763.028758,0.313636,0.219445
763.062379,-0.248485,0.098333
763.096000,-0.002273,0.085666
763.129621,0.272727,0.136364
763.163241,0.109091,0.157590
763.196862,0.209091,0.066959
763.230481,0.465909,0.116304
763.264101,0.040909,0.085129
763.297721,0.240909,0.208633
763.331340,0.018182,0.070711
763.364959,0.536364,0.317629
763.398578,-0.496970,0.050206
763.432196,-0.059091,0.264917
763.465814,-0.004545,0.201787
763.499432,0.325000,0.067295
763.533050,0.090909,0.055670
763.566668,0.084091,0.158224
763.600285,-0.163636,0.050206
763.633902,0.479545,0.308210
763.667519,0.217424,0.112970
763.701135,-0.136364,0.093707
763.734752,0.068182,0.223549
763.768368,0.606818,0.179052
763.801984,0.340909,0.325207
763.835599,-0.095455,0.086334
763.869215,0.297727,0.085966
763.902830,0.636364,0.525192
763.936444,-0.124242,0.018741
763.970059,-0.020455,0.075404
764.003673,0.186364,0.032381
764.037288,0.390909,0.229399
764.070901,-0.465909,0.065031
764.104515,0.136364,0.199431
764.138128,0.062121,0.049114
764.171742,-0.097727,0.076289
764.205354,0.068182,0.180034
764.238967,0.165909,0.089672
764.272580,-0.163636,0.050206
764.306192,0.155303,0.049206
764.339804,-0.031061,0.037119
764.373415,-0.161364,0.017714
764.407027,0.047727,0.075745
764.440638,0.318182,0.199431
764.474249,0.293182,0.309631
764.507860,-0.468182,0.042336
764.541470,0.470455,0.250173
764.575080,0.025000,0.038753
764.608690,-0.072727,0.041161
764.642300,-0.465909,0.033614
764.675909,-0.027273,0.089420
764.709519,0.188636,0.058685
764.743128,0.093182,0.111358
764.776736,0.138636,0.050347
764.810345,0.113636,0.103528
764.843953,-0.072727,0.127110
764.877561,-0.115909,0.067065
764.911169,0.368182,0.109540
764.944776,-0.095455,0.073399
764.978384,0.134091,0.105400
765.011991,-0.006818,0.119977
765.045598,0.247727,0.139189
765.079204,0.093182,0.032201
765.112810,0.095455,0.073399
765.146416,0.124242,0.049167
765.180022,0.434091,0.111358
765.213628,-0.304545,0.069939
765.247233,-0.027273,0.069976
765.280838,0.259091,0.084642
765.314443,0.370455,0.178185
765.348048,0.336364,0.212083
765.381652,0.156818,0.191918
765.415256,0.295455,0.108402
765.448860,0.090909,0.085038
765.482463,-0.304545,0.069939
765.516067,0.295455,0.126029
765.549670,-0.002273,0.132925
765.583273,0.272727,0.238366
765.616875,0.336364,0.317434
765.650478,-0.256818,0.039151
765.684080,0.204545,0.126029
765.717682,-0.090909,0.096424
765.751283,-0.124242,0.018741
765.784885,0.018182,0.070711
765.818486,0.020455,0.050858
765.852087,0.175000,0.168653
765.885687,-0.027273,0.062158
765.919288,0.118182,0.068484
765.952888,0.025000,0.021651
765.986488,0.000000,0.032141
766.020087,-0.140909,0.051975
766.053687,0.061364,0.134586
766.087286,-0.031061,0.049101
766.120885,-0.047727,0.051363
766.154484,0.000000,0.032141
766.188082,0.247727,0.197489
766.221680,0.002273,0.056625
766.255278,-0.054545,0.120089
766.288876,0.229545,0.145006
766.322473,0.124242,0.049167
766.356070,0.002273,0.072612
766.389667,-0.095455,0.035428
766.423264,-0.234091,0.114469
766.456860,0.118182,0.099274
766.490457,0.062121,0.018603
766.524053,0.045455,0.050820
766.557648,0.155303,0.049206
766.591244,0.118182,0.060473
766.624839,-0.031061,0.074230
766.658434,-0.093182,0.064313
766.692029,0.093182,0.032201
766.725623,-0.068182,0.037689
766.759217,0.115909,0.037397
766.792811,-0.002273,0.355162
766.826405,0.250000,0.323614
766.859999,0.186364,0.055809
766.893592,-0.093182,0.085060
766.927185,0.062121,0.092793
766.960777,-0.020455,0.118111
766.994370,0.795455,0.391510
767.027962,0.297727,0.257438
767.061554,-0.124242,0.074273
767.095146,0.343182,0.107102
767.128737,0.124242,0.185586
767.162329,-0.097727,0.134969
767.195920,0.275000,0.189616
767.229510,0.600000,0.191665
767.263101,-0.259091,0.106285
767.296691,0.072727,0.088840
767.330281,-0.277273,0.077506
767.363871,-0.050000,0.119464
767.397460,0.018182,0.062984
767.431050,0.090909,0.096424
767.464639,-0.155303,0.066988
767.498227,0.113636,0.049533
767.531816,0.002273,0.033767
767.565404,-0.418182,0.037483
767.598992,0.002273,0.056625
767.632580,0.031061,0.018568
767.666168,0.025000,0.038753
767.699755,0.363636,0.215610
767.733342,0.062121,0.018603
767.766929,-0.072727,0.041161
767.800515,0.165909,0.053626
767.834101,-0.072727,0.061322
767.867687,-0.062121,0.066920
767.901273,0.161364,0.017714
767.934859,-0.490909,0.044998
767.968444,-0.072727,0.118705
768.002029,0.259091,0.063758
768.035614,-0.002273,0.033767
768.069198,0.047727,0.068588
768.102783,-0.714394,0.051363
768.136367,0.111364,0.082596
768.169950,0.022727,0.037689
768.203534,-0.002273,0.072612
768.237117,0.093182,0.064313
768.270700,0.261364,0.264250
768.304283,-0.031061,0.074230
768.337866,-0.279545,0.055982
768.371448,-0.093182,0.064313
768.405030,0.038636,0.207264
768.438612,0.209091,0.049167
768.472193,0.325000,0.037809
768.505775,-0.004545,0.191274
768.539356,0.136364,0.152459
768.572936,-0.062121,0.018603
768.606517,-0.259091,0.063758
768.640097,-0.100000,0.121373
768.673677,-0.047727,0.152641
768.707257,-0.120455,0.071392
768.740836,0.088636,0.057530
768.774416,0.772727,0.545928
768.807995,0.225000,0.254817
768.841574,0.272727,0.101639
768.875152,0.143182,0.078623
768.908730,0.025000,0.067831
768.942308,-0.259091,0.044710
768.975886,-0.029545,0.137246
769.009464,0.295455,0.113067
769.043041,0.109091,0.101843
769.076618,0.138636,0.122195
769.110195,-0.034091,0.175586
769.143771,0.062121,0.074239
769.177348,-0.118182,0.039886
769.210924,-0.188636,0.108205
769.244499,0.297727,0.085966
769.278075,0.411364,0.358131
769.311650,0.113636,0.117546
769.345225,0.209091,0.049167
769.378800,0.155303,0.066988
769.412375,0.022727,0.098412
769.445949,-0.052273,0.086744
769.479523,0.047727,0.051363
769.513097,-0.165909,0.062521
769.546670,0.217424,0.098300
769.580243,0.320455,0.170844
769.613816,0.325000,0.121899
769.647389,-0.284091,0.079342
769.680962,-0.062121,0.018603
769.714534,-0.006818,0.197959
769.748106,0.231818,0.081407
769.781678,0.279545,0.085242
769.815249,0.070455,0.081335
769.848820,-0.350000,0.039821
769.882391,0.227273,0.149033
769.915962,0.275000,0.184087
769.949533,-0.211364,0.041082
769.983103,0.155303,0.066988
770.016673,0.068182,0.037689
770.050243,0.065909,0.122617
770.083812,-0.256818,0.050654
770.117381,0.140909,0.104718
770.150950,0.352273,0.218214
770.184519,-0.217424,0.098300
770.218088,-0.093182,0.032201
770.251656,-0.115909,0.037397
770.285224,-0.022727,0.019682
770.318791,-0.120455,0.084634
770.352359,0.000000,0.085038
770.385926,0.022727,0.037689
770.419493,0.231818,0.049948
770.453060,-0.375000,0.040576
770.486626,0.315909,0.281953
770.520192,0.188636,0.179915
770.553758,-0.070455,0.038081
770.587324,0.118182,0.149171
770.620890,0.663636,0.277124
770.654455,0.270455,0.171297
770.688020,0.248485,0.049376
770.721584,-0.138636,0.021651
770.755149,0.047727,0.134663
770.788713,0.386364,0.174201
770.822277,0.138636,0.122195
770.855841,-0.513636,0.044710
770.889404,0.070455,0.038081
770.922967,0.000000,0.032141
770.956530,0.256818,0.134394
770.990093,0.277273,0.160110
771.023655,0.931818,0.284545
771.057217,0.184091,0.030555
771.090779,0.070455,0.093175
771.124341,-0.486364,0.044710
771.157902,-0.031061,0.049101
771.191463,0.093182,0.032201
771.225024,0.072727,0.052223
771.258585,-0.188636,0.037119
771.292145,0.143182,0.071753
771.325705,0.088636,0.086266
771.359265,-0.115909,0.081017
771.392825,0.138636,0.148872
771.426384,0.181818,0.140100
771.459943,0.113636,0.059047
771.493502,0.086364,0.189101
771.527061,0.090909,0.032141
771.560619,0.002273,0.179254
771.594177,0.234091,0.146176
771.627735,0.161364,0.170995
771.661293,0.365909,0.114559
771.694850,-0.211364,0.114243
771.728407,-0.045455,0.050820
771.761964,0.247727,0.219771
771.795521,0.045455,0.022727
771.829077,-0.093182,0.032201
771.862633,-0.186364,0.055809
771.896189,-0.209091,0.018741
771.929744,-0.161364,0.017714
771.963300,0.350000,0.082165
771.996855,0.045455,0.039365
772.030409,0.000000,0.085038
772.063964,0.070455,0.093175
772.097518,-0.140909,0.025206
772.131072,-0.211364,0.142418
772.164626,-0.070455,0.081335
772.198180,-0.070455,0.067449
772.231733,0.140909,0.051975
772.265286,-0.213636,0.072834
772.298839,-0.279545,0.085242
772.332391,0.829545,0.417952
772.365943,0.155303,0.037258
772.399495,0.188636,0.037119
772.433047,-0.217424,0.067065
772.466598,-0.093182,0.064313
772.500150,0.279545,0.111497
772.533701,0.370455,0.166185
772.567251,-0.248485,0.049376
772.600802,-0.025000,0.059732
772.634352,0.070455,0.093175
772.667902,0.395455,0.098202
772.701452,-0.093182,0.055705
772.735001,-0.072727,0.099793
772.768550,-0.002273,0.046619
772.802099,-0.256818,0.134394
772.835648,-0.045455,0.022727
772.869196,-0.022727,0.037689
772.902744,0.020455,0.060163
772.936292,0.272727,0.210764
772.969840,0.163636,0.021320
773.003387,0.552273,0.157897
773.036934,0.186364,0.064403
773.070481,0.159091,0.067228
773.104028,0.072727,0.052223
773.137574,-0.124242,0.049167
773.171120,-0.310606,0.019682
773.204666,0.206818,0.086565
773.238212,0.045455,0.022727
773.271757,-0.097727,0.094441
773.305302,0.070455,0.049832
773.338847,0.115909,0.112970
773.372391,0.186364,0.115954
773.405936,-0.050000,0.105700
773.439480,-0.248485,0.019285
773.473024,0.217424,0.067065
773.506567,0.093182,0.055705
773.540110,-0.093182,0.064313
773.573653,-0.006818,0.090532
773.607196,0.163636,0.074966
773.640739,0.188636,0.108205
773.674281,-0.256818,0.050654
773.707823,0.000000,0.000000
773.741365,0.045455,0.039365
773.774906,0.065909,0.068588
773.808447,0.090909,0.106600
773.841988,0.161364,0.167947
773.875529,-0.047727,0.023918
773.909070,-0.443182,0.024766
773.942610,-0.145455,0.142150
773.976150,0.156818,0.076424
774.009689,0.231818,0.152171
774.043229,-0.236364,0.107373
774.076768,0.163636,0.067726
774.110307,-0.124242,0.037206
774.143845,-0.190909,0.077806
774.177384,0.088636,0.097509
774.210922,0.270455,0.130177
774.244460,0.272727,0.195507
774.277997,0.090909,0.055670
774.311535,0.388636,0.132731
774.345072,0.109091,0.132677
774.378609,-0.354545,0.077806
774.412145,0.068182,0.059047
774.445682,0.090909,0.071870
774.479218,-0.115909,0.067065
774.512754,0.093182,0.064313
774.546289,-0.190909,0.077806
774.579824,-0.209091,0.098228
774.613359,0.179545,0.098037
774.646894,0.234091,0.041706
774.680429,-0.022727,0.093015
774.713963,0.256818,0.068059
774.747497,0.254545,0.066183
774.781031,0.111364,0.088629
774.814564,-0.075000,0.206014
774.848097,-0.118182,0.023619
774.881630,0.211364,0.061269
774.915163,0.020455,0.050858
774.948696,0.304545,0.172293
774.982228,0.161364,0.036699
775.015760,-0.070455,0.020423
775.049291,0.084091,0.173782
775.082823,-0.031061,0.066910
775.116354,-0.047727,0.040064
775.149885,-0.168182,0.087049
775.183416,-0.047727,0.099346
775.216946,-0.352273,0.091440
775.250476,-0.050000,0.043301
775.284006,0.022727,0.019682
775.317535,-0.350000,0.051174
775.351065,-0.002273,0.132925
775.384594,-0.170455,0.107054
775.418123,0.115909,0.092897
775.451651,-0.118182,0.039886
775.485180,-0.445455,0.086603
775.518708,-0.031061,0.092786
775.552235,0.068182,0.019682
775.585763,0.104545,0.216888
775.619290,0.279545,0.064553
775.652817,0.250000,0.141476
775.686344,-0.097727,0.069188
775.719870,-0.022727,0.037689
775.753397,-0.062121,0.018603
775.786923,0.056818,0.225776
775.820448,-0.259091,0.084642
775.853974,0.529545,0.159363
775.887499,0.188636,0.074230
775.921024,0.045455,0.039365
775.954549,0.322727,0.182428
775.988073,0.365909,0.083219
776.021597,0.300000,0.206155
776.055121,-0.140909,0.051975
776.088645,-0.022727,0.019682
776.122168,-0.347727,0.057350
776.155691,0.161364,0.086863
776.189214,-0.248485,0.037483
776.222737,0.000000,0.000000
776.256259,-0.397727,0.070738
776.289781,0.370455,0.166185
776.323303,0.217424,0.158615
776.356824,-0.072727,0.109658
776.390346,0.522727,0.453835
776.423867,0.124242,0.080930
776.457387,-0.013636,0.327360
776.490908,0.179545,0.137509
776.524428,0.072727,0.076331
776.557948,0.036364,0.141421
776.591468,0.365909,0.356034
776.624987,0.140909,0.025206
776.658506,0.111364,0.180689
776.692025,-0.209091,0.066959
776.725544,-0.309091,0.116598
776.759062,0.155303,0.037258
776.792581,0.222727,0.165191
776.826099,0.155303,0.037258
776.859616,0.217424,0.019117
776.893134,0.062121,0.037137
776.926651,0.095455,0.073399
776.960167,-0.095455,0.102726
776.993684,-0.025000,0.038753
777.027200,0.093182,0.032201
777.060716,0.363636,0.167011
777.094232,0.000000,0.055670
777.127748,0.088636,0.144470
777.161263,0.186364,0.085129
777.194778,0.159091,0.137777
777.228293,0.047727,0.068588
777.261807,0.097727,0.142418
777.295322,0.090909,0.055670
777.328836,-0.403788,0.038081
777.362349,-0.211364,0.041082
777.395863,0.156818,0.088920
777.429376,0.184091,0.153821
777.462889,0.000000,0.096424
777.496401,0.079545,0.187672
777.529914,0.113636,0.117546
777.563426,0.070455,0.049832
777.596938,0.325000,0.098458
777.630449,0.163636,0.067726
777.663961,0.093182,0.032201
777.697472,0.134091,0.131558
777.730983,-0.075000,0.085545
777.764493,-0.006818,0.119977
777.798004,0.372727,0.111618
777.831514,-0.118182,0.060473
777.865023,0.390909,0.169893
777.898533,0.131818,0.133357
777.932042,0.045455,0.104149
777.965551,0.020455,0.039414
777.999060,-0.370455,0.053142
778.032568,0.131818,0.154863
778.066076,0.293182,0.160074
778.099584,0.136364,0.093707
778.133092,0.204545,0.204230
778.166599,0.140909,0.082666
778.200107,0.341667,0.261875
778.233613,0.020455,0.118111
778.267120,0.045455,0.093707
778.300626,0.531818,0.169269
778.334132,-0.009091,0.266326
778.367638,-0.031061,0.037119
778.401144,-0.052273,0.086744
778.434649,-0.027273,0.123399
778.468154,0.234091,0.083095
778.501659,0.165909,0.083714
778.535163,0.093182,0.032201
778.568668,0.506818,0.279802
778.602172,0.002273,0.056625
778.635675,-0.370455,0.053142
778.669179,0.043182,0.146070
778.702682,0.279545,0.055982
778.736185,0.070455,0.038081
778.769688,0.095455,0.057631
778.803190,0.134091,0.149910
778.836692,0.538636,0.152235
778.870194,0.225000,0.178532
778.903696,0.065909,0.082282
778.937197,0.227273,0.075378
778.970698,0.124242,0.049167
779.004199,-0.070455,0.049832
779.037699,0.045455,0.068182
779.071200,0.045455,0.093707
779.104700,-0.124242,0.066959
779.138199,0.070455,0.067449
779.171699,0.061364,0.109156
779.205198,0.000000,0.032141
779.238697,0.163636,0.067726
779.272196,0.315909,0.184508
779.305694,0.047727,0.113880
779.339192,-0.031061,0.018568
779.372690,0.768182,0.177258
779.406188,0.497727,0.313527
779.439685,-0.047727,0.040064
779.473182,-0.143182,0.175997
779.506679,0.310606,0.103528
779.540176,-0.068182,0.067228
779.573672,-0.077273,0.094993
779.607168,0.436364,0.119572
779.640664,0.615909,0.325887
779.674160,0.155303,0.177050
779.707655,0.247727,0.172349
779.741150,0.095455,0.073399
779.774644,0.047727,0.068588
779.808139,0.776515,0.197070
779.841633,0.770455,0.259835
779.875127,0.393182,0.195597
779.908621,0.063636,0.101334
779.942114,-0.211364,0.041082
779.975607,0.227273,0.171587
780.009100,-0.372727,0.056224
780.042593,0.159091,0.067228
780.076085,-0.097727,0.186402
780.109577,-0.031061,0.037119
780.143069,0.234091,0.052654
780.176560,-0.047727,0.023918
780.210052,0.204545,0.130063
780.243543,0.247727,0.172349
780.277033,-0.022727,0.098412
780.310524,-0.254545,0.116952
780.344014,-0.062121,0.018603
780.377504,0.090909,0.045455
780.410994,-0.143182,0.055519
780.444483,1.118182,0.680559
780.477972,0.163636,0.021320
780.511461,0.062121,0.080898
780.544950,-0.072727,0.061322
780.578438,0.211364,0.114243
780.611926,0.250000,0.133975
780.645414,0.022727,0.081153
780.678902,-0.002273,0.056625
780.712389,0.320455,0.121346
780.745876,0.802273,0.367429
780.779363,-0.070455,0.020423
780.812849,0.068182,0.019682
780.846335,-0.025000,0.038753
780.879821,0.062121,0.129904
780.913307,0.047727,0.051363
780.946792,0.188636,0.074230
780.980277,0.020455,0.050858
781.013762,0.186364,0.140156
781.047247,0.256818,0.050654
781.080731,0.231818,0.122031
781.114215,0.217424,0.049311
781.147699,0.093182,0.032201
781.181183,0.000000,0.055670
781.214666,-0.122727,0.082165
781.248149,0.070455,0.038081
781.281632,0.093182,0.064313
781.315114,0.155303,0.037258
781.348596,0.217424,0.019117
781.382078,0.318182,0.177506
781.415560,0.025000,0.059732
781.449041,0.288636,0.269457
781.482522,0.345455,0.056040
781.516003,0.090909,0.106600
781.549484,0.002273,0.056625
781.582964,0.045455,0.075378
781.616444,0.070455,0.067449
781.649924,-0.068182,0.037689
781.683404,-0.140909,0.051975
781.716883,0.134091,0.070078
781.750362,0.179545,0.117233
781.783841,0.020455,0.060163
781.817319,0.109091,0.170197
781.850797,0.090909,0.167011
781.884275,0.209091,0.037206
781.917753,0.188636,0.049101
781.951230,-0.047727,0.094003
781.984707,0.022727,0.049533
782.018184,-0.072727,0.061322
782.051661,-0.115909,0.037397
782.085137,0.000000,0.000000
782.118613,0.124242,0.103353
782.152089,0.370455,0.083405
782.185564,0.124242,0.037206
782.219040,-0.072727,0.061322
782.252515,0.365909,0.210037
782.285989,0.322727,0.047835
782.319464,0.111364,0.233115
782.352938,0.343182,0.195781
782.386412,-0.031061,0.066910
782.419885,-0.209091,0.037206
782.453359,-0.350000,0.051174
782.486832,0.320455,0.129580
782.520305,0.461364,0.295339
782.553777,-0.079545,0.202244
782.587249,-0.279545,0.032679
782.620721,-0.683333,0.082165
782.654193,0.345455,0.200825
782.687665,0.186364,0.003936
782.721136,0.256818,0.122322
782.754607,0.086364,0.088695
782.788077,0.088636,0.073320
782.821548,0.140909,0.134897
782.855018,0.093182,0.251039
782.888488,0.138636,0.081652
782.921957,0.254545,0.066183
782.955427,-0.170455,0.107054
782.988896,0.225000,0.153653
783.022365,0.136364,0.068182
783.055833,-0.062121,0.074239
783.089301,0.093182,0.032201
783.122769,-0.310606,0.019682
783.156237,0.118182,0.088257
783.189704,0.070455,0.145184
783.223172,0.320455,0.257639
783.256638,0.259091,0.139860
783.290105,0.345455,0.213298
783.323571,0.528030,0.317294
783.357037,0.365909,0.186596
783.390503,-0.025000,0.067831
783.423969,0.022727,0.103528
783.457434,0.206818,0.154992
783.490899,0.025000,0.067831
783.524364,-0.143182,0.078623
783.557828,0.256818,0.068059
783.591292,0.322727,0.047835
783.624756,0.438636,0.157077
783.658220,0.236364,0.097277
783.691683,0.247727,0.244260
783.725146,-0.022727,0.019682
783.758609,0.045455,0.022727
783.792072,0.138636,0.050347
783.825534,0.209091,0.066959
783.858996,-0.093182,0.032201
783.892458,0.045455,0.068182
783.925919,-0.093182,0.115904
783.959381,-0.113636,0.049533
783.992842,0.090909,0.215610
784.026302,0.679545,0.349518
784.059763,-0.090909,0.071870
784.093223,0.113636,0.037689
784.126683,0.300000,0.072869
784.160142,0.259091,0.063758
784.193601,0.000000,0.032141
784.227060,0.068182,0.087286
784.260519,0.372727,0.096745
784.293978,0.020455,0.088044
784.327436,0.345455,0.085280
784.360894,0.045455,0.099066
784.394352,-0.025000,0.067831
784.427809,-0.095455,0.080128
784.461266,0.000000,0.032141
784.494723,0.138636,0.067831
784.528180,0.179545,0.161679
784.561636,0.454545,0.244780
784.595092,0.022727,0.019682
784.628548,0.050000,0.077506
784.662003,0.186364,0.032381
784.695458,0.341667,0.098458
784.728913,0.000000,0.032141
784.762368,0.047727,0.051363
784.795823,0.113636,0.059047
784.829277,0.070455,0.049832
784.862731,0.047727,0.051363
784.896184,0.025000,0.021651
784.929637,-0.186364,0.115954
784.963091,0.113636,0.108402
784.996543,0.209091,0.037206
785.029996,0.386364,0.218879
785.063448,0.834091,0.166341
785.096900,1.475000,0.584673
785.130352,2.484848,0.292820
785.163803,0.372727,0.064763
785.197254,0.340909,0.280891
785.230705,0.093182,0.055705
785.264156,-0.095455,0.035428
785.297606,0.063636,0.090568
785.331056,0.209091,0.049167
785.364506,0.248485,0.074412
785.397955,-0.047727,0.099346
785.431405,-0.093182,0.032201
785.464854,-0.403788,0.067449
785.498302,-0.211364,0.061269
785.531751,-0.022727,0.067228
785.565199,0.295455,0.180034
785.598647,-0.443182,0.099553
785.632094,-0.163636,0.021320
785.665542,-0.062121,0.018603
785.698989,0.070455,0.049832
785.732436,0.065909,0.088337
785.765882,0.068182,0.255871
785.799328,0.217424,0.074369
785.832774,0.184091,0.054770
785.866220,0.163636,0.148825
785.899665,-0.072727,0.127110
785.933111,0.020455,0.126555
785.966555,-0.234091,0.026577
786.000000,0.072727,0.076331
786.033444,0.217424,0.074369
786.066888,0.252273,0.112282
786.100332,0.488636,0.214032
786.133776,0.268182,0.190191
786.167219,-0.161364,0.086863
786.200662,0.325000,0.098458
786.234104,0.140909,0.069048
786.267547,0.129545,0.169722
786.300989,0.481818,0.272234
786.334431,0.155303,0.049206
786.367872,0.443182,0.262288
786.401314,-0.124242,0.037206
786.434755,0.000000,0.055670
786.468196,0.118182,0.039886
786.501636,0.086364,0.162671
786.535076,0.040909,0.096504
786.568516,0.275000,0.160074
786.601956,-0.031061,0.037119
786.635395,0.124242,0.018741
786.668834,-0.124242,0.018741
786.702273,0.093182,0.032201
786.735712,0.211364,0.099761
786.769150,0.236364,0.079772
786.802588,-0.434848,0.038233
786.836026,0.181818,0.170075
786.869463,1.031818,0.372803
786.902900,1.204545,0.152035
786.936337,1.263636,0.660156
786.969774,3.000000,0.441869
787.003210,1.750000,0.282724
787.036646,0.659091,0.251801
787.070082,0.200000,0.253570
787.103518,0.211364,0.114243
787.136953,-0.155303,0.103372
787.170388,0.181818,0.096424
787.203823,0.310606,0.103528
787.237257,0.043182,0.152979
787.270691,0.217424,0.165000
787.304125,-0.140909,0.025206
787.337559,0.186364,0.085129
787.370992,0.025000,0.059732
787.404425,0.045455,0.050820
787.437858,0.509091,0.203177
787.471290,-0.434848,0.081407
787.504723,0.270455,0.251860
787.538155,0.256818,0.152404
787.571586,0.234091,0.083095
787.605018,-0.070455,0.067449
787.638449,0.234091,0.069560
787.671880,0.043182,0.069337
787.705310,0.031061,0.080890
787.738741,-0.124242,0.037206
787.772171,0.347727,0.086147
787.805600,-0.327273,0.028020
787.839030,-0.027273,0.053203
787.872459,0.138636,0.130375
787.905888,0.252273,0.107583
787.939317,0.277273,0.270474
787.972745,-0.155303,0.066988
788.006173,0.234091,0.026577
788.039601,-0.118182,0.039886
788.073028,-0.118182,0.039886
788.106456,0.070455,0.049832
788.139883,-0.047727,0.068588
788.173309,0.206818,0.102921
788.206736,-0.093182,0.055705
788.240162,0.422727,0.202094
788.273588,0.161364,0.036699
788.307013,0.231818,0.067535
788.340439,0.202273,0.207563
788.373864,-0.022727,0.049533
788.407288,0.415909,0.091384
788.440713,0.159091,0.093015
788.474137,0.204545,0.130063
788.507561,0.256818,0.068059
788.540985,-0.002273,0.072612
788.574408,0.000000,0.055670
788.607831,0.190909,0.110689
788.641254,0.434848,0.098622
788.674677,0.154545,0.133066
788.708099,-0.445455,0.167813
788.741521,0.745455,0.148129
788.774943,2.136364,0.590472
788.808364,1.806818,0.191756
788.841785,2.764394,0.069188
788.875206,2.625000,0.775126
788.908627,0.341667,0.098458
788.942047,0.002273,0.072612
788.975467,0.047727,0.040064
789.008887,-0.188636,0.037119
789.042306,0.056818,0.239109
789.075726,0.115909,0.049311
789.109145,0.093182,0.032201
789.142563,0.465909,0.161007
789.175982,-0.284091,0.065031
789.209400,-0.000000,0.085038
789.242817,0.211364,0.061269
789.276235,0.363636,0.190150
789.309652,0.336364,0.168673
789.343069,0.002273,0.085666
789.376486,0.254545,0.035791
789.409902,-0.031061,0.049101
789.443319,0.248485,0.103453
789.476735,0.115909,0.103422
789.510150,0.418182,0.161859
789.543565,0.118182,0.039886
789.576980,-0.004545,0.185795
789.610395,0.211364,0.088804
789.643810,0.206818,0.151623
789.677224,-0.163636,0.130321
789.710638,0.155303,0.018844
789.744052,0.068182,0.059047
789.777465,-0.248485,0.049376
789.810878,0.088636,0.116791
789.844291,0.031061,0.018568
789.877703,0.161364,0.036699
789.911116,0.134091,0.070078
789.944528,0.179545,0.117233
789.977939,0.217424,0.019117
790.011351,-0.209091,0.049167
790.044762,0.161364,0.036699
790.078173,0.022727,0.074516
790.111583,0.327273,0.028020
790.144994,0.206818,0.133507
790.178404,-0.045455,0.068182
790.211813,-0.954545,0.068182
790.245223,0.038636,0.202218
790.278632,0.209091,0.049167
790.312041,0.415909,0.046396
790.345450,-0.075000,0.072469
790.378858,0.095455,0.035428
790.412266,0.072727,0.088840
790.445674,0.000000,0.055670
790.479081,-0.100000,0.198808
790.512488,0.211364,0.041082
790.545895,0.000000,0.055670
790.579302,0.945455,0.414061
790.612708,1.743182,0.431799
790.646115,3.156818,0.709771
790.679520,5.397727,0.851799
790.712926,6.922727,0.965058
790.746331,3.272727,0.584758
790.779736,0.313636,0.165816
790.813141,-0.072727,0.052223
790.846545,0.002273,0.033767
790.879949,-0.136364,0.068182
790.913353,0.109091,0.096638
790.946757,-0.065909,0.122617
790.980160,0.325000,0.121899
791.013563,0.093182,0.032201
791.046966,0.022727,0.037689
791.080368,0.300000,0.085884
791.113771,0.111364,0.104663
791.147173,0.372727,0.140321
791.180574,0.188636,0.074230
791.213976,0.065909,0.113880
791.247377,-0.138636,0.050347
791.280777,0.310606,0.074516
791.314178,-0.072727,0.052223
791.347578,0.124242,0.018741
791.380978,0.136364,0.093707
791.414378,0.188636,0.103322
791.447777,0.722727,0.614910
791.481176,0.395455,0.218785
791.514575,0.252273,0.092059
791.547973,0.093182,0.055705
791.581372,0.217424,0.074369
791.614770,-0.062121,0.018603
791.648167,-0.124242,0.066959
791.681565,0.093182,0.096444
791.714962,0.504545,0.276143
791.748359,0.031061,0.018568
791.781755,0.136364,0.171587
791.815152,0.320455,0.223269
791.848548,0.343182,0.120706
791.881943,0.334091,0.386275
791.915339,0.025000,0.148872
791.948734,0.572727,0.194288
791.982129,0.272727,0.187414
792.015523,0.615909,0.426164
792.048918,0.062121,0.049114
792.082312,-0.000000,0.085038
792.115705,0.227273,0.149033
792.149099,0.211364,0.041082
792.182492,0.504545,0.381405
792.215885,-0.138636,0.185902
792.249278,-0.031061,0.018568
792.282670,0.093182,0.055705
792.316062,0.022727,0.049533
792.349454,-0.062121,0.049114
792.382845,-0.138636,0.067831
792.416236,0.254545,0.057854
792.449627,0.615909,0.272355
792.483018,1.495455,0.202808
792.516408,4.297727,0.547396
792.549798,6.025758,0.438365
792.583188,8.510606,0.983655
792.616578,2.895455,0.712010
792.649967,1.536364,0.299897
792.683356,0.268182,0.150807
792.716745,0.310606,0.067228
792.750133,0.211364,0.197175
792.783521,0.452273,0.233115
792.816909,0.621212,0.260126
792.850296,0.468182,0.166189
792.883684,-0.118182,0.039886
792.917071,0.229545,0.049311
792.950457,0.136364,0.068182
792.983844,-0.248485,0.103453
793.017230,0.206818,0.086565
793.050616,0.062121,0.066920
793.084001,-0.113636,0.049533
793.117386,0.020455,0.081968
793.150771,0.070455,0.074715
793.184156,-0.031061,0.049101
793.217541,0.093182,0.064313
793.250925,0.000000,0.096424
793.284309,0.300000,0.116509
793.317692,0.315909,0.233889
793.351075,0.403788,0.134086
793.384458,0.272727,0.078730
793.417841,0.070455,0.074715
793.451223,-0.027273,0.062158
793.484606,0.138636,0.067831
793.517988,0.206818,0.151623
793.551369,0.415909,0.225181
793.584750,1.004545,0.375124
793.618131,0.022727,0.067228
793.651512,0.086364,0.099664
793.684893,0.002273,0.072612
793.718273,0.217424,0.067065
793.751653,0.186364,0.096504
793.785032,-0.068182,0.037689
793.818411,0.231818,0.113249
793.851790,-0.095455,0.086334
793.885169,0.025000,0.038753
793.918548,-0.062121,0.037137
793.951926,0.254545,0.057854
793.985304,-0.118182,0.039886
794.018681,0.209091,0.037206
794.052059,-0.031061,0.018568
794.085436,0.062121,0.066920
794.118812,0.297727,0.129181
794.152189,0.636364,0.447675
794.185565,0.031061,0.049101
794.218941,-0.006818,0.090532
794.252317,0.400000,0.099378
794.285692,-0.124242,0.049167
794.319067,0.570455,0.250730
794.352442,1.147727,0.246554
794.385816,6.627273,0.759961
794.419190,13.818182,1.463749
794.452564,21.115909,1.430286
794.485938,10.027273,1.165951
794.519311,3.013636,0.269172
794.552684,0.652273,0.116703
794.586057,-0.124242,0.037206
794.619429,-0.002273,0.096978
794.652802,-0.045455,0.022727
794.686173,0.155303,0.066988
794.719545,0.563636,0.299518
794.752916,-0.122727,0.325461
794.786287,0.000000,0.140100
794.819658,0.040909,0.259161
794.853029,0.652273,0.232183
794.886399,0.093182,0.001968
794.919769,0.045455,0.152459
794.953138,0.386364,0.348217
794.986508,-0.190909,0.100925
795.019877,-0.047727,0.068588
795.053245,0.090909,0.190150
795.086614,0.181818,0.195507
795.119982,0.304545,0.069939
795.153350,-0.031061,0.037119
795.186718,0.184091,0.084451
795.220085,0.310606,0.098412
795.253452,0.124242,0.049167
795.286819,0.047727,0.023918
795.320185,0.155303,0.204151
795.353551,0.140909,0.069048
795.386917,0.209091,0.158571
795.420283,-0.124242,0.018741
795.453648,-0.002273,0.033767
795.487013,0.113636,0.037689
795.520378,-0.095455,0.035428
795.553742,0.047727,0.051363
795.587107,0.484091,0.248412
795.620471,0.115909,0.158615
795.653834,0.322727,0.065987
795.687197,0.090909,0.032141
795.720560,0.295455,0.158685
795.753923,0.040909,0.071978
795.787286,0.525000,0.224767
795.820648,0.343182,0.206064
795.854010,-0.050000,0.119464
795.887371,0.310606,0.019682
795.920733,0.302273,0.129899
795.954094,0.031061,0.049101
795.987454,0.202273,0.207563
796.020815,-0.031061,0.037119
796.054175,0.186364,0.055809
796.087535,0.179545,0.141216
796.120894,0.372727,0.033091
796.154254,0.279545,0.064553
796.187613,0.509091,0.252999
796.220971,1.704545,0.320406
796.254330,6.165909,0.517747
796.287688,17.131818,1.193221
796.321046,34.400000,1.317696
796.354403,36.682576,2.858127
796.387761,15.525000,1.330081
796.421118,2.175000,0.478714
796.454474,0.325000,0.049624
796.487831,-0.020455,0.075404
796.521187,-0.002273,0.102165
796.554543,0.209091,0.018741
796.587898,0.227273,0.177506
796.621254,0.388636,0.282136
796.654609,-0.072727,0.061322
796.687963,0.343182,0.120706
796.721318,-0.125000,0.158583
796.754672,-0.518182,0.095021
796.788026,0.320455,0.112511
796.821379,0.070455,0.049832
796.854732,0.213636,0.116487
796.888085,0.259091,0.136117
796.921438,0.002273,0.072612
796.954790,-0.050000,0.043301
796.988142,0.395455,0.185572
797.021494,0.213636,0.125041
797.054846,-0.231818,0.020706
797.088197,-0.031061,0.049101
797.121548,0.988636,0.637656
797.154899,0.368182,0.122874
797.188249,0.225000,0.178532
797.221599,0.297727,0.065506
797.254949,0.714394,0.130771
797.288298,0.279545,0.111497
797.321648,0.586364,0.294605
797.354996,-0.215909,0.084083
797.388345,0.552273,0.369462
797.421693,0.490909,0.181705
797.455041,0.340909,0.161907
797.488389,0.395455,0.188335
797.521737,0.793182,0.259636
797.555084,0.310606,0.228123
797.588431,-0.143182,0.124415
797.621777,0.602273,0.363414
797.655124,-0.279545,0.032679
797.688470,0.095455,0.047835
797.721815,0.159091,0.067228
797.755161,0.436364,0.131897
797.788506,0.438636,0.106036
797.821851,0.093182,0.032201
797.855196,1.050000,0.668518
797.888540,0.186364,0.085129
797.921884,0.000000,0.115887
797.955228,0.020455,0.075404
797.988571,0.256818,0.068059
798.021914,0.279545,0.085242
798.055257,-0.025000,0.117892
798.088599,1.406818,0.179110
798.121942,1.708333,0.310947
798.155284,12.424242,0.266985
798.188625,28.948485,0.984519
798.221967,53.636364,0.938722
798.255308,43.329545,1.444512
798.288649,14.381061,1.391627
798.321989,2.418182,0.616542
798.355329,1.243182,0.218309
798.388669,0.106818,0.156418
798.422009,0.850000,0.196390
798.455348,0.279545,0.147408
798.488687,0.159091,0.165066
798.522026,0.300000,0.097171
798.555365,0.388636,0.140298
798.588703,0.061364,0.109156
798.622041,0.613636,0.251801
798.655378,0.345455,0.170197
798.688716,0.140909,0.069048
798.722053,0.155303,0.066988
798.755389,0.155303,0.049206
798.788726,0.062121,0.018603
798.822062,-0.070455,0.074715
798.855398,0.229545,0.049311
798.888733,0.677273,0.047835
798.922069,0.163636,0.113363
798.955404,0.279545,0.116037
798.988738,0.345455,0.120433
799.022073,0.252273,0.107583
799.055407,0.403788,0.134086
799.088741,0.654545,0.401495
799.122074,0.465909,0.033614
799.155408,0.322727,0.151491
799.188741,0.988636,0.149357
799.222073,0.418182,0.133917
799.255406,0.436364,0.246546
799.288738,0.645455,0.289021
799.322069,0.155303,0.018844
799.355401,0.018182,0.084060
799.388732,-0.022727,0.081153
799.422063,0.597727,0.196781
799.455394,0.279545,0.179052
799.488724,0.604545,0.343678
799.522054,0.093182,0.055705
799.555384,0.062121,0.066920
799.588713,0.411364,0.276776
799.622042,-0.309091,0.097277
799.655371,0.395455,0.164941
799.688700,-0.229545,0.092897
799.722028,0.352273,0.091440
799.755356,0.479545,0.208184
799.788684,0.481818,0.272234
799.822011,0.217424,0.228075
799.855338,0.155303,0.066988
799.888665,0.397727,0.150219
799.921992,0.341667,0.130098
799.955318,0.513636,0.166810
799.988644,0.859091,0.246075
800.021969,3.763636,0.615032
800.055295,15.431818,0.662121
800.088620,49.975758,0.702534
800.121945,105.388636,2.800135
800.155269,109.265909,0.874415
800.188593,39.729545,1.507969
800.221917,7.019697,0.705362
800.255241,1.225000,0.530918
800.288564,0.479545,0.335493
800.321887,0.506818,0.142961
800.355210,0.372727,0.391094
800.388532,0.115909,0.049311
800.421854,-0.072727,0.041161
800.455176,0.020455,0.109014
800.488498,0.714394,0.188934
800.521819,0.715909,0.327925
800.555140,-0.496970,0.021320
800.588461,0.293182,0.336799
800.621781,0.500000,0.354283
800.655101,-0.031061,0.121686
800.688421,-0.279545,0.064553
800.721740,0.320455,0.073671
800.755060,0.320455,0.223269
800.788379,0.093182,0.064313
800.821697,0.047727,0.023918
800.855015,0.209091,0.074273
800.888334,-0.124242,0.049167
800.921651,0.093182,0.085060
800.954969,-0.025000,0.059732
800.988286,-0.095455,0.057631
801.021603,-0.031061,0.066910
801.054919,0.638636,0.369839
801.088235,0.836364,0.325310
801.121551,0.454545,0.147290
801.154867,0.481818,0.194819
801.188183,0.372727,0.116154
801.221498,0.248485,0.049376
801.254812,0.155303,0.049206
801.288127,0.329545,0.174109
801.321441,0.093182,0.032201
801.354755,0.325000,0.037809
801.388069,0.714394,0.130771
801.421382,-0.011364,0.194431
801.454695,0.372727,0.200876
801.488008,0.306818,0.133855
801.521320,0.213636,0.133047
801.554632,0.155303,0.018844
801.587944,0.372727,0.033091
801.621256,0.403788,0.081335
801.654567,0.186364,0.003936
801.687878,0.175000,0.228483
801.721189,0.252273,0.140850
801.754499,0.377273,0.137627
801.787809,0.254545,0.057854
801.821119,0.368182,0.094339
801.854428,0.456818,0.221760
801.887737,0.579545,0.178503
801.921046,2.070455,0.325252
801.954355,8.647727,0.765065
801.987663,37.284091,1.197705
802.020971,108.432576,3.844644
802.054279,162.795455,4.513224
802.087586,105.823485,3.745638
802.120894,28.418182,1.692887
802.154200,4.297727,0.589293
802.187507,0.993939,0.131583
802.220813,0.913636,0.345597
802.254119,0.547727,0.207065
802.287425,1.118182,0.580627
802.320730,0.934091,0.262013
802.354035,-0.404545,0.142350
802.387340,0.186364,0.055809
802.420644,0.163636,0.103851
802.453949,-0.062121,0.049114
802.487252,0.436364,0.163384
802.520556,0.200000,0.216184
802.553859,0.759091,0.419975
802.587162,0.479545,0.143574
802.620465,-0.031061,0.092786
802.653767,0.000000,0.085038
802.687069,0.377273,0.177025
802.720371,0.136364,0.075378
802.753673,0.563636,0.219974
802.786974,0.050000,0.105700
802.820275,0.781818,0.248466
802.853576,0.322727,0.116841
802.886876,0.002273,0.116348
802.920176,0.188636,0.133816
802.953476,0.329545,0.216432
802.986775,0.621212,0.068182
803.020074,1.384091,0.521148
803.053373,0.184091,0.146952
803.086672,0.124242,0.049167
803.119970,0.318182,0.138245
803.153268,0.325000,0.081208
803.186565,0.093182,0.055705
803.219863,-0.029545,0.208878
803.253160,0.490909,0.071582
803.286457,0.645455,0.205453
803.319753,0.154545,0.247174
803.353049,0.181818,0.064282
803.386345,0.522727,0.284545
803.419641,0.209091,0.103353
803.452936,0.184091,0.135999
803.486231,0.461364,0.130296
803.519525,0.528030,0.145361
803.552820,-0.004545,0.067535
803.586114,0.552273,0.157897
803.619408,0.554545,0.182555
803.652701,0.768182,0.177258
803.685994,0.504545,0.197649
803.719287,0.997727,0.305094
803.752580,0.602273,0.119588
803.785872,1.434091,0.498866
803.819164,1.306818,0.321964
803.852456,5.934091,0.534409
803.885747,17.600000,1.029503
803.919038,77.570455,3.285951
803.952329,183.161364,4.321064
803.985620,262.150000,2.757547
804.018910,148.220455,3.578515
804.052200,26.159091,1.036710
804.085489,3.882576,0.557485
804.118779,0.652273,0.116703
804.152068,0.248485,0.148547
804.185357,0.217424,0.112970
804.218645,1.397727,0.335324
804.251933,1.397727,0.323564
804.285221,0.697727,0.249656
804.318508,0.756818,0.260787
804.351796,0.554545,0.092375
804.385083,0.465909,0.085605
804.418369,0.068182,0.098412
804.451656,0.597727,0.221480
804.484942,-0.047727,0.051363
804.518227,-0.052273,0.151725
804.551513,0.411364,0.249284
804.584798,0.268182,0.227307
804.618083,0.090909,0.132522
804.651367,0.093182,0.085060
804.684652,0.093182,0.032201
804.717936,-0.161364,0.058421
804.751219,0.718182,0.305697
804.784503,0.807576,0.207342
804.817786,0.186364,0.111410
804.851068,0.684091,0.266702
804.884351,0.931818,0.286355
804.917633,0.720455,0.116037
804.950915,0.776515,0.428328
804.984196,0.629545,0.042321
805.017478,0.776515,0.099553
805.050759,0.310606,0.019682
805.084039,0.340909,0.171210
805.117320,0.986364,0.402388
805.150600,0.621212,0.165457
805.183879,0.847727,0.284833
805.217159,0.931818,0.279046
805.250438,0.779545,0.169722
805.283717,1.079545,0.385150
805.316995,1.268182,0.280228
805.350274,0.768182,0.113249
805.383552,0.838636,0.201502
805.416829,0.031061,0.080890
805.450107,0.559091,0.085854
805.483384,0.977273,0.291716
805.516660,0.670455,0.185596
805.549937,1.013636,0.298299
805.583213,0.465909,0.147618
805.616489,1.040909,0.335587
805.649764,1.428788,0.316905
805.683040,0.807576,0.131012
805.716315,0.403788,0.145184
805.749589,2.247727,0.119199
805.782864,7.075000,0.917790
805.816138,31.542045,1.490997
805.849411,170.367424,4.983635
805.882685,426.390909,10.380386
805.915958,550.673485,11.923609
805.949231,349.186364,2.726669
805.982504,65.820455,1.909281
806.015776,8.976515,0.332679
806.049048,2.722727,0.219915
806.082319,0.155303,0.259815
806.115591,0.496970,0.098753
806.148862,0.413636,0.203317
806.182133,0.300000,0.136893
806.215403,0.395455,0.112884
806.248673,0.786364,0.265306
806.281943,0.190909,0.146798
806.315213,0.068182,0.059047
806.348482,0.093182,0.096444
806.381751,0.020455,0.081968
806.415019,0.250000,0.196496
806.448288,0.765909,0.347190
806.481556,0.759091,0.309517
806.514823,0.563636,0.238019
806.548091,0.186364,0.032381
806.581358,0.248485,0.098333
806.614625,0.068182,0.037689
806.647891,0.506818,0.089672
806.681158,0.390909,0.187248
806.714424,0.248485,0.049376
806.747689,0.318182,0.183233
806.780955,0.409091,0.288377
806.814220,0.155303,0.098248
806.847484,1.565909,0.476844
806.880749,1.521970,0.199000
806.914013,0.906818,0.475651
806.947277,0.747727,0.400547
806.980540,0.496970,0.021320
807.013803,0.031061,0.103322
807.047066,0.811364,0.414527
807.080329,0.452273,0.186319
807.113591,0.496970,0.113363
807.146853,0.341667,0.291731
807.180115,0.259091,0.119982
807.213376,0.688636,0.251409
807.246637,0.620455,0.241131
807.279898,0.456818,0.165781
807.313159,0.675000,0.161935
807.346419,0.763636,0.329600
807.379679,0.040909,0.071978
807.412938,0.248485,0.098333
807.446198,1.118182,0.252140
807.479457,1.079545,0.193098
807.512715,1.088636,0.213694
807.545974,1.193182,0.310115
807.579232,1.079545,0.436688
807.612490,1.740909,0.512584
807.645747,2.561364,0.336922
807.679004,1.847727,0.372802
807.712261,4.721212,0.236101
807.745518,25.190152,2.012457
807.778774,139.772727,4.385186
807.812030,538.384091,12.256155
807.845285,970.675000,22.115075
807.878541,840.934091,12.748698
807.911796,237.624242,7.388056
807.945051,31.497727,2.459266
807.978305,4.545455,0.289271
808.011559,1.138636,0.258040
808.044813,0.929545,0.093175
808.078066,1.863636,0.360068
808.111320,0.403788,0.130177
808.144573,0.155303,0.018844
808.177825,0.745455,0.116952
808.211078,0.310606,0.049533
808.244330,0.454545,0.263087
808.277581,0.670455,0.155291
808.310833,1.111364,0.104663
808.344084,1.113636,0.462850
808.377335,1.113636,0.059047
808.410585,1.184091,0.229318
808.443835,0.640909,0.376224
808.477085,0.090909,0.147290
808.510335,0.155303,0.080953
808.543584,1.427273,0.254586
808.576833,0.047727,0.040064
808.610082,0.186364,0.064403
808.643330,-0.404545,0.202298
808.676578,0.770455,0.165000
808.709826,0.465909,0.111775
808.743073,0.807576,0.183557
808.776320,0.390909,0.124233
808.809567,0.154545,0.151235
808.842814,1.145455,0.254221
808.876060,1.861364,0.522682
808.909306,0.534091,0.140446
808.942552,1.075000,0.179196
808.975797,1.211364,0.390531
809.009042,0.836364,0.206906
809.042287,0.625000,0.168837
809.075531,0.248485,0.133917
809.108775,0.109091,0.181932
809.142019,0.788636,0.114243
809.175262,0.847727,0.290222
809.208506,0.436364,0.139509
809.241748,0.888636,0.380984
809.274991,0.776515,0.099553
809.308233,1.072727,0.291831
809.341475,1.770455,0.536338
809.374717,0.645455,0.207951
809.407958,1.577273,0.413530
809.441199,0.372727,0.116154
809.474440,0.979545,0.357048
809.507680,0.847727,0.237353
809.540921,1.361364,0.355744
809.574160,1.547727,0.232894
809.607400,1.252273,0.047714
809.640639,3.325000,0.455775
809.673878,8.750000,0.334601
809.707117,46.043182,2.438172
809.740355,197.543182,6.038128
809.773593,648.052273,8.478417
809.806831,1031.786364,14.841015
809.840068,795.089394,19.780467
809.873305,173.127273,3.310508
809.906542,20.624242,0.802913
809.939778,7.190909,0.518122
809.973015,2.515909,0.325776
810.006250,3.936364,0.830426
810.039486,2.247727,0.477547
810.072721,3.261364,0.535509
810.105956,1.677273,0.426662
810.139191,2.254545,0.595472
810.172425,0.993939,0.178261
810.205659,1.428788,0.403004
810.238893,1.300000,0.795091
810.272126,1.463636,0.418651
810.305359,1.322727,0.530101
810.338592,0.652273,0.167578
810.371825,1.427273,0.636964
810.405057,1.415909,0.392444
810.438289,0.962879,0.178185
810.471520,0.372727,0.116154
810.504751,0.776515,0.134816
810.537982,0.279545,0.251100
810.571213,0.124242,0.049167
810.604443,1.597727,0.130494
810.637673,0.869697,0.194607
810.670903,0.345455,0.246965
810.704133,0.496970,0.098753
810.737362,1.654545,0.324674
810.770591,1.302273,0.724450
810.803819,1.038636,0.518544
810.837047,1.265909,0.252741
810.870275,0.813636,0.556716
810.903503,0.528030,0.103920
810.936730,0.743182,0.784525
810.969957,0.621212,0.188787
811.003184,0.227273,0.122390
811.036410,0.341667,0.218900
811.069636,0.714394,0.315825
811.102862,0.683333,0.113795
811.136087,0.393182,0.198220
811.169312,0.490909,0.090682
811.202537,0.475000,0.362218
811.235762,1.040909,0.360806
811.268986,1.252273,0.697623
811.302210,0.606818,0.136491
811.335433,0.559091,0.340356
811.368656,0.931818,0.037689
811.401879,2.109091,0.508441
811.435102,0.621212,0.145526
811.468324,2.343182,0.517368
811.501546,2.040909,0.655094
811.534768,1.677273,0.073399
811.567990,1.368182,0.568105
811.601211,2.484848,0.568636
811.634432,5.306818,0.508038
811.667652,43.179545,0.777594
811.700872,174.843182,1.627867
811.734092,559.556818,15.041406
811.767312,818.043182,17.791627
811.800531,595.028030,13.450057
811.833750,122.896970,2.905936
811.866969,16.881818,1.010656
811.900187,3.106061,0.364346
811.933405,2.263636,0.539609
811.966623,0.310606,0.409564
811.999840,0.279545,0.064553
812.033057,1.118182,0.130716
812.066274,1.646212,0.738202
812.099490,1.225000,0.160235
812.132707,0.962879,0.178185
812.165923,0.807576,0.194488
812.199138,0.961364,0.445691
812.232353,0.372727,0.160899
812.265568,0.318182,0.199431
812.298783,0.403788,0.121983
812.331997,0.618182,0.326894
812.365211,1.193182,0.732999
812.398425,0.720455,0.225066
812.431638,0.129545,0.235934
812.464851,0.368182,0.082666
812.498064,0.356818,0.219959
812.531277,0.372727,0.251154
812.564489,0.409091,0.408459
812.597701,0.409091,0.277422
812.630912,0.093182,0.195517
812.664123,0.481818,0.194819
