#{
#    "background_file": "Backgrounds\\\\bg_785.995nm_13bin_219st_244en_10.0s_110g_4x_13_seq.txt",
#    "ccd_image_settings": [
#        1,
#        13,
#        1,
#        1600,
#        219,
#        244
#    ],
#    "ccd_temperature": "-87",
#    "cdRatios": {
#        "mean": 0.9485598967078233,
#        "std": 0.011694170200493806
#    },
#    "center_lambda": 786.0,
#    "comments": "",
#    "dark_region": 18.506119921262396,
#    "date": "10/22/20 17:31:03PM",
#    "eff_field": 1.5,
#    "exposure": 10.0,
#    "fel_lambda": "15.0",
#    "fel_pol": "H",
#    "fel_pulses": 43,
#    "fel_pyro_cal": "0.012",
#    "fel_reprate": "1.07",
#    "fel_transmission": "1.0",
#    "fel_transmission_fits": {
#        "A": 1.0,
#        "C": 0.0,
#        "Mu": 0.0
#    },
#    "fieldInt": {
#        "mean": 5312.82034469697,
#        "std": 291.2321881015613
#    },
#    "fieldStrength": {
#        "mean": 33.424698863636365,
#        "std": 0.9634365430041637
#    },
#    "fpTime": {
#        "mean": 1.0904497290201673,
#        "std": 0.06897756848257712
#    },
#    "gain": 110,
#    "grating": 3,
#    "images_in_sequence": [
#        "hsg_820nm_c123_a90_HAna465.txt",
#        "hsg_820nm_c123_a90_HAna466.txt",
#        "hsg_820nm_c123_a90_HAna467.txt",
#        "hsg_820nm_c123_a90_HAna468.txt"
#    ],
#    "nir_lambda": "819.98",
#    "nir_pola": "90",
#    "nir_polg": "0",
#    "nir_power": "100.0",
#    "pulseEnergies": {
#        "mean": 1.6187253787878788,
#        "std": 0.10172679305565568
#    },
#    "pyroVoltage": {
#        "mean": 0.14233671706538806,
#        "std": 0.010217290375486989
#    },
#    "rotatorAngle": 22.499996337881683,
#    "sample_Temp": "55",
#    "sample_name": "L001218.C1",
#    "series": "820_Fan",
#    "slits": "60",
#    "spec_step": "",
#    "window_trans": 0.92,
#    "y_max": 2,
#    "y_min": 1
#}
#
#
#
#
#
#
#
#
#
#
#
#
#
#
#
#
#
#
#
#
#
#
#
#
#
#
Wavelength,Signal,error
nm,arb. u.,arb.u.
Wavelength,820_Fan,error
759.194366,0.259091,0.200554
759.228015,-0.000000,0.085038
759.261663,0.370455,0.105302
759.295311,0.406818,0.402797
759.328959,0.795455,0.380809
759.362607,0.656818,0.547537
759.396254,-0.045455,0.022727
759.429901,0.018182,0.070711
759.463548,0.186364,0.032381
759.497194,-0.161364,0.066679
759.530841,0.318182,0.159091
759.564487,0.606818,0.317098
759.598133,-0.140909,0.082666
759.631779,-0.029545,0.193472
759.665424,0.202273,0.142671
759.699069,-0.022727,0.093015
759.732714,0.188636,0.133816
759.766359,0.090909,0.167011
759.800003,0.206818,0.057977
759.833648,0.045455,0.022727
759.867292,-0.125000,0.121729
759.900935,-0.002273,0.046619
759.934579,0.115909,0.049311
759.968222,-0.062121,0.018603
760.001865,0.043182,0.076424
760.035508,0.113636,0.049533
760.069151,0.095455,0.035428
760.102793,0.275000,0.131754
760.136435,0.045455,0.022727
760.170077,0.031061,0.049101
760.203718,-0.045455,0.022727
760.237360,-0.511364,0.080953
760.271001,0.015909,0.206765
760.304642,0.027273,0.089420
760.338283,-0.118182,0.068484
760.371923,0.247727,0.246366
760.405563,0.688636,0.116703
760.439203,-0.093182,0.055705
760.472843,0.186364,0.055809
760.506482,-0.002273,0.102165
760.540122,0.065909,0.051363
760.573761,0.513636,0.153926
760.607399,0.088636,0.057530
760.641038,0.204545,0.177142
760.674676,0.343182,0.140482
760.708314,0.327273,0.105431
760.741952,0.093182,0.055705
760.775589,-0.065909,0.152641
760.809227,0.025000,0.059732
760.842864,-0.002273,0.079407
760.876501,-0.234091,0.026577
760.910137,0.222727,0.126193
760.943774,0.481818,0.281561
760.977410,-0.072727,0.041161
761.011046,0.250000,0.168166
761.044681,0.159091,0.141476
761.078317,0.188636,0.087041
761.111952,-0.097727,0.076289
761.145587,-0.050000,0.070528
761.179221,0.020455,0.126555
761.212856,-0.629545,0.076963
761.246490,0.062121,0.049114
761.280124,0.163636,0.021320
761.313758,-0.025000,0.038753
761.347391,0.000000,0.032141
761.381024,-0.213636,0.065358
761.414657,-0.022727,0.037689
761.448290,0.470455,0.138557
761.481923,0.393182,0.124622
761.515555,0.484091,0.149841
761.549187,-0.124242,0.066959
761.582819,-0.188636,0.074230
761.616450,-0.284091,0.128941
761.650082,-0.211364,0.061269
761.683713,0.115909,0.067065
761.717344,-0.279545,0.064553
761.750974,-0.047727,0.099346
761.784605,-0.159091,0.108402
761.818235,-0.031061,0.049101
761.851865,-0.124242,0.074273
761.885494,-0.215909,0.084083
761.919124,0.186364,0.055809
761.952753,0.161364,0.066679
761.986382,0.475000,0.469090
762.020010,0.527273,0.168978
762.053639,0.325000,0.098458
762.087267,0.325000,0.019911
762.120895,0.370455,0.186679
762.154523,0.204545,0.141476
762.188150,-0.165909,0.062521
762.221777,0.115909,0.019117
762.255404,0.186364,0.032381
762.289031,0.111364,0.068963
762.322658,0.204545,0.081153
762.356284,-0.161364,0.066679
762.389910,-0.528030,0.050347
762.423536,0.217424,0.049311
762.457161,-0.138636,0.050347
762.490786,0.138636,0.021651
762.524411,0.420455,0.178503
762.558036,-0.118182,0.039886
762.591661,0.000000,0.032141
762.625285,-0.434848,0.038233
762.658909,0.022727,0.037689
762.692533,0.088636,0.073320
762.726157,0.143182,0.106522
762.759780,0.124242,0.018741
762.793403,0.600000,0.275666
762.827026,0.204545,0.204230
762.860649,0.184091,0.160396
762.894271,0.134091,0.131558
762.927893,0.045455,0.099066
762.961515,0.159091,0.067228
762.995137,0.217424,0.103422
763.028758,0.440909,0.251309
763.062379,-0.138636,0.098824
763.096000,-0.002273,0.056625
763.129621,0.138636,0.021651
763.163241,-0.124242,0.018741
763.196862,0.155303,0.049206
763.230481,0.115909,0.067065
763.264101,0.413636,0.147342
763.297721,0.479545,0.335493
763.331340,-0.031061,0.037119
763.364959,0.186364,0.195547
763.398578,-0.217424,0.182820
763.432196,0.061364,0.180489
763.465814,0.279545,0.480007
763.499432,0.124242,0.074273
763.533050,0.217424,0.049311
763.566668,0.000000,0.000000
763.600285,-0.122727,0.104323
763.633902,0.217424,0.037397
763.667519,0.254545,0.057854
763.701135,-0.143182,0.055519
763.734752,0.681818,0.455113
763.768368,0.365909,0.094823
763.801984,0.031061,0.049101
763.835599,0.111364,0.088629
763.869215,0.236364,0.125145
763.902830,-0.310606,0.019682
763.936444,0.047727,0.082282
763.970059,0.020455,0.152472
764.003673,0.550000,0.176674
764.037288,0.797727,0.583524
764.070901,-0.122727,0.171692
764.104515,-0.190909,0.095671
764.138128,0.093182,0.032201
764.171742,0.234091,0.041706
764.205354,-0.072727,0.041161
764.238967,0.022727,0.067228
764.272580,-0.062121,0.018603
764.306192,0.277273,0.029016
764.339804,0.590909,0.309124
764.373415,0.062121,0.092793
764.407027,0.393182,0.163995
764.440638,0.093182,0.055705
764.474249,0.086364,0.082666
764.507860,-0.138636,0.081652
764.541470,0.155303,0.074299
764.575080,0.465909,0.116304
764.608690,-0.062121,0.037137
764.642300,-0.168182,0.117370
764.675909,-0.211364,0.061269
764.709519,0.186364,0.032381
764.743128,0.040909,0.085129
764.776736,0.088636,0.073320
764.810345,0.227273,0.149033
764.843953,0.093182,0.001968
764.877561,0.284091,0.371497
764.911169,0.522727,0.307239
764.944776,-0.031061,0.018568
764.978384,0.279545,0.085242
765.011991,0.072727,0.076331
765.045598,0.231818,0.081407
765.079204,0.318182,0.122390
765.112810,0.234091,0.094714
765.146416,0.050000,0.077506
765.180022,0.370455,0.146353
765.213628,-0.161364,0.086863
765.247233,-0.070455,0.049832
765.280838,0.279545,0.032679
765.314443,0.068182,0.098412
765.348048,-0.217424,0.067065
765.381652,-0.217424,0.019117
765.415256,0.031061,0.049101
765.448860,-0.002273,0.079407
765.482463,0.040909,0.253111
765.516067,0.159091,0.093015
765.549670,0.563636,0.172608
765.583273,0.434848,0.049948
765.616875,0.186364,0.032381
765.650478,-0.093182,0.085060
765.684080,0.068182,0.067228
765.717682,-0.093182,0.032201
765.751283,0.084091,0.198740
765.784885,-0.062121,0.018603
765.818486,0.138636,0.177371
765.852087,0.093182,0.001968
765.885687,0.420455,0.219983
765.919288,0.065909,0.109251
765.952888,0.027273,0.110128
765.986488,0.340909,0.117546
766.020087,0.248485,0.177098
766.053687,-0.143182,0.071753
766.087286,-0.002273,0.079407
766.120885,-0.025000,0.021651
766.154484,0.065909,0.104416
766.188082,0.365909,0.139004
766.221680,0.140909,0.114158
766.255278,0.179545,0.211507
766.288876,-0.031061,0.037119
766.322473,0.000000,0.032141
766.356070,0.504545,0.242267
766.389667,0.138636,0.038753
766.423264,-0.240909,0.114700
766.456860,0.217424,0.067065
766.490457,0.025000,0.021651
766.524053,0.115909,0.037397
766.557648,0.188636,0.037119
766.591244,0.229545,0.067065
766.624839,-0.217424,0.037397
766.658434,0.018182,0.105822
766.692029,0.155303,0.018844
766.725623,0.165909,0.077298
766.759217,-0.025000,0.038753
766.792811,-0.172727,0.157656
766.826405,-0.097727,0.088804
766.859999,0.488636,0.164969
766.893592,0.163636,0.067726
766.927185,0.143182,0.096337
766.960777,-0.248485,0.019285
766.994370,0.275000,0.083837
767.027962,0.440909,0.179344
767.061554,-0.027273,0.069976
767.095146,0.315909,0.205688
767.128737,0.070455,0.067449
767.162329,-0.027273,0.105333
767.195920,0.000000,0.032141
767.229510,0.186364,0.003936
767.263101,0.184091,0.135999
767.296691,0.750000,0.545810
767.330281,-0.027273,0.166205
767.363871,-0.165909,0.062521
767.397460,0.186364,0.064403
767.431050,0.250000,0.121861
767.464639,0.093182,0.032201
767.498227,0.327273,0.070124
767.531816,0.438636,0.119761
767.565404,-0.445455,0.048319
767.598992,0.072727,0.052223
767.632580,0.217424,0.019117
767.666168,-0.140909,0.051975
767.699755,0.020455,0.039414
767.733342,0.281818,0.075103
767.766929,0.020455,0.050858
767.800515,0.020455,0.039414
767.834101,-0.047727,0.082282
767.867687,-0.025000,0.038753
767.901273,0.250000,0.121861
767.934859,0.106818,0.221946
767.968444,-0.027273,0.069976
768.002029,0.031061,0.018568
768.035614,0.109091,0.111526
768.069198,0.250000,0.161907
768.102783,-0.497727,0.164058
768.136367,0.093182,0.032201
768.169950,0.231818,0.177258
768.203534,0.229545,0.145006
768.237117,0.181818,0.055670
768.270700,0.045455,0.039365
768.304283,0.159091,0.049533
768.337866,0.015909,0.182905
768.371448,-0.022727,0.019682
768.405030,-0.170455,0.096925
768.438612,0.000000,0.055670
768.472193,0.559091,0.085854
768.505775,0.120455,0.111033
768.539356,0.031061,0.018568
768.572936,-0.045455,0.050820
768.606517,-0.302273,0.049101
768.640097,0.418182,0.019285
768.673677,-0.025000,0.038753
768.707257,-0.047727,0.023918
768.740836,-0.027273,0.053203
768.774416,0.481818,0.089420
768.807995,0.090909,0.045455
768.841574,0.327273,0.114812
768.875152,0.252273,0.057530
768.908730,0.062121,0.092793
768.942308,-0.045455,0.039365
768.975886,0.020455,0.075404
769.009464,0.113636,0.059047
769.043041,0.325000,0.152065
769.076618,0.070455,0.038081
769.110195,0.161364,0.058421
769.143771,0.138636,0.050347
769.177348,0.181818,0.055670
769.210924,0.406818,0.282136
769.244499,0.113636,0.037689
769.278075,0.254545,0.066183
769.311650,0.022727,0.049533
769.345225,0.138636,0.050347
769.378800,0.310606,0.158685
769.412375,0.250000,0.121861
769.445949,-0.186364,0.032381
769.479523,0.000000,0.032141
769.513097,0.043182,0.069337
769.546670,0.556818,0.204782
769.580243,-0.231818,0.020706
769.613816,0.000000,0.032141
769.647389,-0.284091,0.102115
769.680962,0.504545,0.281699
769.714534,0.000000,0.000000
769.748106,0.022727,0.049533
769.781678,0.161364,0.058421
769.815249,0.124242,0.133840
769.848820,-0.403788,0.067449
769.882391,0.095455,0.073399
769.915962,0.550000,0.366769
769.949533,0.227273,0.196824
769.983103,0.209091,0.018741
770.016673,0.000000,0.055670
770.050243,0.002273,0.056625
770.083812,-0.120455,0.124207
770.117381,0.202273,0.142671
770.150950,0.062121,0.018603
770.184519,0.065909,0.068588
770.218088,-0.027273,0.123399
770.251656,0.118182,0.088257
770.285224,-0.372727,0.033091
770.318791,0.113636,0.037689
770.352359,0.062121,0.037137
770.385926,0.115909,0.019117
770.419493,0.050000,0.077506
770.453060,-0.155303,0.074299
770.486626,0.045455,0.039365
770.520192,-0.161364,0.098037
770.553758,-0.022727,0.067228
770.587324,0.156818,0.226484
770.620890,0.000000,0.032141
770.654455,0.365909,0.139004
770.688020,0.217424,0.103422
770.721584,0.186364,0.085129
770.755149,0.295455,0.206743
770.788713,-0.124242,0.049167
770.822277,0.115909,0.049311
770.855841,-0.331818,0.129106
770.889404,0.400000,0.202158
770.922967,-0.093182,0.032201
770.956530,0.138636,0.038753
770.990093,0.131818,0.097569
771.023655,0.279545,0.055982
771.057217,0.072727,0.061322
771.090779,-0.070455,0.038081
771.124341,-0.513636,0.084642
771.157902,0.068182,0.037689
771.191463,0.231818,0.081407
771.225024,0.325000,0.098458
771.258585,-0.093182,0.032201
771.292145,0.136364,0.075378
771.325705,0.409091,0.304070
771.359265,0.088636,0.073320
771.392825,0.231818,0.103727
771.426384,0.211364,0.114243
771.459943,-0.043182,0.094551
771.493502,0.070455,0.081335
771.527061,0.413636,0.195547
771.560619,-0.062121,0.188335
771.594177,-0.124242,0.037206
771.627735,0.131818,0.137176
771.661293,0.461364,0.211824
771.694850,-0.256818,0.081842
771.728407,0.022727,0.037689
771.761964,0.043182,0.069337
771.795521,0.031061,0.049101
771.829077,-0.002273,0.033767
771.862633,0.088636,0.112282
771.896189,-0.050000,0.077506
771.929744,-0.279545,0.032679
771.963300,0.095455,0.057631
771.996855,-0.031061,0.049101
772.030409,0.000000,0.032141
772.063964,0.124242,0.049167
772.097518,-0.115909,0.067065
772.131072,-0.420455,0.054201
772.164626,0.113636,0.087286
772.198180,-0.045455,0.022727
772.231733,0.093182,0.032201
772.265286,-0.025000,0.038753
772.298839,0.059091,0.277114
772.332391,0.062121,0.018603
772.365943,0.022727,0.049533
772.399495,0.143182,0.096337
772.433047,-0.090909,0.032141
772.466598,-0.115909,0.037397
772.500150,0.222727,0.279120
772.533701,0.159091,0.121861
772.567251,0.043182,0.123037
772.600802,0.293182,0.160074
772.634352,-0.006818,0.101302
772.667902,-0.027273,0.083443
772.701452,0.065909,0.104416
772.735001,0.113636,0.049533
772.768550,0.124242,0.018741
772.802099,-0.279545,0.096604
772.835648,0.118182,0.039886
772.869196,-0.027273,0.053203
772.902744,0.161364,0.148351
772.936292,0.136364,0.068182
772.969840,0.234091,0.069560
773.003387,0.184091,0.030555
773.036934,0.390909,0.203126
773.070481,0.206818,0.102921
773.104028,0.095455,0.097569
773.137574,-0.025000,0.038753
773.171120,-0.075000,0.107005
773.204666,0.031061,0.018568
773.238212,0.138636,0.038753
773.271757,-0.002273,0.033767
773.305302,0.277273,0.053926
773.338847,0.209091,0.066959
773.372391,0.062121,0.049114
773.405936,0.000000,0.064282
773.439480,0.186364,0.085129
773.473024,0.124242,0.049167
773.506567,0.248485,0.037483
773.540110,-0.070455,0.081335
773.573653,0.252273,0.276870
773.607196,0.350000,0.051174
773.640739,0.022727,0.113067
773.674281,-0.155303,0.018844
773.707823,0.065909,0.060591
773.741365,0.252273,0.065899
773.774906,0.113636,0.037689
773.808447,0.206818,0.086565
773.841988,0.124242,0.049167
773.875529,-0.070455,0.038081
773.909070,-0.327273,0.083567
773.942610,-0.234091,0.026577
773.976150,0.068182,0.067228
774.009689,-0.031061,0.066910
774.043229,0.159091,0.201685
774.076768,-0.050000,0.077506
774.110307,-0.006818,0.153922
774.143845,0.227273,0.138245
774.177384,-0.097727,0.076289
774.210922,0.272727,0.136364
774.244460,0.138636,0.021651
774.277997,0.372727,0.116154
774.311535,0.248485,0.074412
774.345072,0.506818,0.250586
774.378609,-0.341667,0.093064
774.412145,0.062121,0.037137
774.445682,-0.002273,0.079407
774.479218,0.031061,0.049101
774.512754,0.115909,0.067065
774.546289,0.022727,0.133975
774.579824,-0.155303,0.018844
774.613359,-0.095455,0.086334
774.646894,0.250000,0.087286
774.680429,0.340909,0.130063
774.713963,0.136364,0.050820
774.747497,0.586364,0.468220
774.781031,0.234091,0.105057
774.814564,-0.062121,0.037137
774.848097,0.109091,0.111526
774.881630,0.436364,0.205402
774.915163,-0.045455,0.039365
774.948696,-0.025000,0.038753
774.982228,0.206818,0.073671
775.015760,-0.140909,0.040846
775.049291,0.111364,0.114107
775.082823,0.070455,0.152133
775.116354,0.206818,0.117012
775.149885,0.000000,0.032141
775.183416,-0.027273,0.095021
775.216946,-0.215909,0.146741
775.250476,-0.031061,0.037119
775.284006,0.184091,0.044347
775.317535,-0.279545,0.032679
775.351065,0.002273,0.056625
775.384594,-0.256818,0.068059
775.418123,0.093182,0.167022
775.451651,-0.209091,0.080930
775.485180,-0.490909,0.071582
775.518708,-0.027273,0.083443
775.552235,-0.031061,0.018568
775.585763,-0.124242,0.049167
775.619290,0.295455,0.141476
775.652817,0.138636,0.021651
775.686344,0.068182,0.037689
775.719870,0.277273,0.083906
775.753397,0.118182,0.060473
775.786923,0.025000,0.021651
775.820448,0.124242,0.103353
775.853974,0.477273,0.177142
775.887499,0.256818,0.022355
775.921024,0.227273,0.252058
775.954549,-0.217424,0.092897
775.988073,-0.068182,0.087286
776.021597,0.022727,0.081153
776.055121,0.243182,0.265304
776.088645,0.109091,0.101843
776.122168,-0.284091,0.079342
776.155691,0.252273,0.065899
776.189214,0.000000,0.032141
776.222737,0.281818,0.059786
776.256259,-0.122727,0.126683
776.289781,0.315909,0.166868
776.323303,0.184091,0.054770
776.356824,0.154545,0.120861
776.390346,0.140909,0.051975
776.423867,0.281818,0.155678
776.457387,-0.372727,0.033091
776.490908,0.045455,0.050820
776.524428,0.020455,0.060163
776.557948,-0.279545,0.032679
776.591468,0.372727,0.263205
776.624987,0.227273,0.081944
776.658506,-0.022727,0.037689
776.692025,-0.118182,0.039886
776.725544,-0.193182,0.109440
776.759062,0.118182,0.068484
776.792581,-0.070455,0.020423
776.826099,0.297727,0.085966
776.859616,0.484091,0.100277
776.893134,0.277273,0.043301
776.926651,0.431818,0.351171
776.960167,-0.097727,0.061269
776.993684,0.186364,0.064403
777.027200,0.043182,0.052359
777.060716,0.184091,0.030555
777.094232,0.275000,0.156814
777.127748,-0.068182,0.067228
777.161263,0.090909,0.055670
777.194778,0.031061,0.018568
777.228293,0.256818,0.068059
777.261807,0.113636,0.049533
777.295322,0.300000,0.102348
777.328836,-0.304545,0.042336
777.362349,-0.043182,0.094551
777.395863,0.611364,0.246994
777.429376,-0.138636,0.050347
777.462889,0.095455,0.057631
777.496401,-0.025000,0.038753
777.529914,0.343182,0.206064
777.563426,-0.047727,0.051363
777.596938,0.440909,0.034242
777.630449,0.211364,0.041082
777.663961,0.302273,0.144934
777.697472,0.217424,0.129978
777.730983,-0.070455,0.020423
777.764493,-0.163636,0.050206
777.798004,0.231818,0.093237
777.831514,0.022727,0.152035
777.865023,0.572727,0.171708
777.898533,0.413636,0.143794
777.932042,0.134091,0.077097
777.965551,0.140909,0.082666
777.999060,-0.155303,0.049206
778.032568,0.088636,0.073320
778.066076,0.413636,0.170121
778.099584,0.050000,0.070528
778.133092,0.386364,0.232608
778.166599,0.403788,0.020423
778.200107,-0.045455,0.068182
778.233613,0.018182,0.070711
778.267120,0.040909,0.150807
778.300626,0.375000,0.060931
778.334132,-0.140909,0.025206
778.367638,0.156818,0.088920
778.401144,0.134091,0.146423
778.434649,0.025000,0.021651
778.468154,0.095455,0.047835
778.501659,0.093182,0.032201
778.535163,0.177273,0.181292
778.568668,0.279545,0.064553
778.602172,0.093182,0.055705
778.635675,-0.434848,0.049948
778.669179,0.025000,0.038753
778.702682,0.043182,0.069337
778.736185,0.062121,0.049114
778.769688,0.022727,0.049533
778.803190,-0.004545,0.087522
778.836692,0.061364,0.109156
778.870194,-0.062121,0.103328
778.903696,0.186364,0.055809
778.937197,0.093182,0.032201
778.970698,0.124242,0.018741
779.004199,0.134091,0.258639
779.037699,0.095455,0.097569
779.071200,0.124242,0.037206
779.104700,0.047727,0.023918
779.138199,0.161364,0.017714
779.171699,0.000000,0.032141
779.205198,0.031061,0.018568
779.238697,-0.186364,0.032381
779.272196,0.300000,0.056954
779.305694,0.181818,0.321412
779.339192,0.186364,0.115954
779.372690,0.252273,0.065899
779.406188,0.155303,0.049206
779.439685,-0.070455,0.020423
779.473182,-0.188636,0.049101
779.506679,0.734091,0.445980
779.540176,-0.095455,0.073399
779.573672,-0.186364,0.032381
779.607168,1.120455,0.351552
779.640664,0.297727,0.102418
779.674160,0.475000,0.492719
779.707655,0.227273,0.104149
779.741150,0.365909,0.149737
779.774644,0.227273,0.081944
779.808139,0.184091,0.071175
779.841633,0.186364,0.064403
779.875127,0.022727,0.103528
779.908621,0.115909,0.037397
779.942114,0.177273,0.240125
779.975607,0.136364,0.093707
780.009100,-0.027273,0.095021
780.042593,0.140909,0.134897
780.076085,-0.310606,0.067228
780.109577,-0.002273,0.085666
780.143069,0.186364,0.032381
780.176560,0.786364,0.285921
780.210052,0.031061,0.080890
780.243543,0.118182,0.068484
780.277033,0.502273,0.327862
780.310524,-0.304545,0.042336
780.344014,0.159091,0.165066
780.377504,-0.068182,0.019682
780.410994,0.002273,0.056625
780.444483,0.138636,0.038753
780.477972,0.161364,0.036699
780.511461,0.234091,0.105057
780.544950,-0.095455,0.073399
780.578438,0.231818,0.038233
780.611926,0.279545,0.005905
780.645414,0.113636,0.059047
780.678902,0.563636,0.393700
780.712389,0.229545,0.092897
780.745876,0.300000,0.185028
780.779363,0.138636,0.021651
780.812849,0.159091,0.113067
780.846335,0.090909,0.055670
780.879821,-0.025000,0.038753
780.913307,0.109091,0.091136
780.946792,0.347727,0.057350
780.980277,0.302273,0.080890
781.013762,0.181818,0.184637
781.047247,-0.004545,0.074793
781.080731,-0.031061,0.066910
781.114215,0.138636,0.038753
781.147699,0.409091,0.152459
781.181183,0.181818,0.071870
781.214666,-0.097727,0.076289
781.248149,0.272727,0.078730
781.281632,0.065909,0.060591
781.315114,0.134091,0.083529
781.348596,0.204545,0.067228
781.382078,0.138636,0.050347
781.415560,0.363636,0.314918
781.449041,-0.163636,0.050206
781.482522,0.206818,0.057977
781.516003,-0.031061,0.049101
781.549484,0.031061,0.066910
781.582964,0.227273,0.081944
781.616444,0.140909,0.051975
781.649924,0.140909,0.051975
781.683404,-0.027273,0.062158
781.716883,-0.006818,0.119977
781.750362,0.279545,0.111497
781.783841,0.320455,0.158289
781.817319,0.131818,0.102726
781.850797,-0.022727,0.081153
781.884275,0.093182,0.085060
781.917753,0.256818,0.039151
781.951230,0.015909,0.098458
781.984707,0.325000,0.130098
782.018184,0.015909,0.113107
782.051661,0.040909,0.147342
782.085137,-0.062121,0.018603
782.118613,0.065909,0.068588
782.152089,0.395455,0.018603
782.185564,0.093182,0.032201
782.219040,0.124242,0.037206
782.252515,0.593182,0.213089
782.285989,0.347727,0.097403
782.319464,0.020455,0.134471
782.352938,0.184091,0.084451
782.386412,0.209091,0.049167
782.419885,-0.304545,0.062117
782.453359,-0.163636,0.021320
782.486832,0.300000,0.056954
782.520305,0.161364,0.086863
782.553777,0.093182,0.147303
782.587249,-0.420455,0.054201
782.620721,-0.807576,0.051975
782.654193,0.217424,0.037397
782.687665,0.302273,0.080890
782.721136,0.248485,0.049376
782.754607,0.872727,0.510590
782.788077,0.136364,0.152459
782.821548,0.217424,0.037397
782.855018,0.086364,0.239695
782.888488,0.184091,0.054770
782.921957,0.327273,0.053397
782.955427,-0.090909,0.032141
782.988896,0.018182,0.131897
783.022365,0.177273,0.135661
783.055833,0.254545,0.086483
783.089301,0.000000,0.055670
783.122769,-0.306818,0.058773
783.156237,0.031061,0.018568
783.189704,0.093182,0.096444
783.223172,0.279545,0.085242
783.256638,0.402273,0.219842
783.290105,0.209091,0.080930
783.323571,0.372727,0.111618
783.357037,0.411364,0.276776
783.390503,0.113636,0.180034
783.423969,0.388636,0.257238
783.457434,0.161364,0.036699
783.490899,0.131818,0.148042
783.524364,0.031061,0.049101
783.557828,0.403788,0.049832
783.591292,0.325000,0.067295
783.624756,0.229545,0.092897
783.658220,0.659091,0.392827
783.691683,-0.120455,0.071392
783.725146,0.022727,0.037689
783.758609,0.156818,0.104909
783.792072,0.320455,0.117012
783.825534,0.138636,0.098824
783.858996,0.229545,0.067065
783.892458,0.431818,0.251801
783.925919,0.045455,0.039365
783.959381,-0.155303,0.037258
783.992842,-0.093182,0.032201
784.026302,0.320455,0.129580
784.059763,0.022727,0.130063
784.093223,0.231818,0.098622
784.126683,0.341667,0.037809
784.160142,0.161364,0.086863
784.193601,-0.068182,0.037689
784.227060,0.372727,0.064763
784.260519,0.490909,0.169954
784.293978,0.161364,0.066679
784.327436,0.368182,0.131012
784.360894,0.352273,0.065031
784.394352,0.068182,0.059047
784.427809,-0.155303,0.037258
784.461266,0.295455,0.117546
784.494723,0.115909,0.019117
784.528180,0.022727,0.049533
784.561636,0.065909,0.051363
784.595092,0.531818,0.192136
784.628548,0.163636,0.050206
784.662003,0.186364,0.064403
784.695458,0.088636,0.057530
784.728913,0.095455,0.035428
784.762368,0.045455,0.050820
784.795823,0.227273,0.093707
784.829277,0.070455,0.038081
784.862731,-0.002273,0.033767
784.896184,0.038636,0.099502
784.929637,-0.310606,0.049533
784.963091,0.093182,0.032201
784.996543,0.045455,0.022727
785.029996,0.124242,0.049167
785.063448,0.159091,0.067228
785.096900,0.363636,0.178955
785.130352,0.995455,0.425935
785.163803,0.338636,0.272450
785.197254,-0.031061,0.049101
785.230705,0.095455,0.047835
785.264156,0.310606,0.113067
785.297606,0.070455,0.020423
785.331056,0.250000,0.087286
785.364506,-0.031061,0.112878
785.397955,-0.118182,0.039886
785.431405,0.000000,0.032141
785.464854,-0.304545,0.069939
785.498302,0.088636,0.112282
785.531751,0.115909,0.074369
785.565199,0.179545,0.141216
785.598647,-0.381818,0.180220
785.632094,-0.120455,0.084634
785.665542,0.093182,0.085060
785.698989,-0.072727,0.076331
785.732436,0.022727,0.019682
785.765882,0.018182,0.070711
785.799328,0.281818,0.050412
785.832774,-0.025000,0.059732
785.866220,0.163636,0.038569
785.899665,0.161364,0.170995
785.933111,-0.031061,0.066910
785.966555,-0.115909,0.019117
786.000000,0.186364,0.064403
786.033444,0.165909,0.053626
786.066888,0.229545,0.049311
786.100332,0.252273,0.057530
786.133776,0.675000,0.093064
786.167219,-0.031061,0.049101
786.200662,0.095455,0.080128
786.234104,0.222727,0.137927
786.267547,-0.070455,0.098563
786.300989,0.134091,0.095095
786.334431,0.229545,0.067065
786.367872,0.000000,0.000000
786.401314,0.031061,0.018568
786.434755,0.197727,0.266954
786.468196,0.227273,0.093707
786.501636,0.234091,0.041706
786.535076,-0.072727,0.041161
786.568516,0.186364,0.032381
786.601956,0.047727,0.040064
786.635395,0.188636,0.058685
786.668834,-0.050000,0.053926
786.702273,-0.070455,0.098563
786.735712,0.000000,0.032141
786.769150,0.206818,0.048252
786.802588,-0.372727,0.033091
786.836026,-0.031061,0.049101
786.869463,0.252273,0.140850
786.902900,0.559091,0.147762
786.936337,0.945455,0.518222
786.969774,1.827273,0.344766
787.003210,1.463636,0.613434
787.036646,0.388636,0.116126
787.070082,0.134091,0.219771
787.103518,0.043182,0.069337
787.136953,-0.138636,0.075060
787.170388,0.136364,0.093707
787.203823,0.159091,0.059047
787.237257,-0.118182,0.039886
787.270691,0.040909,0.124545
787.304125,0.161364,0.036699
787.337559,0.115909,0.049311
787.370992,-0.234091,0.052654
787.404425,0.247727,0.172349
787.437858,0.086364,0.118596
787.471290,-0.304545,0.114700
787.504723,0.134091,0.178243
787.538155,0.231818,0.049948
787.571586,0.124242,0.018741
787.605018,0.217424,0.188386
787.638449,0.138636,0.038753
787.671880,0.140909,0.051975
787.705310,0.068182,0.037689
787.738741,-0.020455,0.060163
787.772171,0.161364,0.066679
787.805600,-0.075000,0.091384
787.839030,-0.062121,0.037137
787.872459,0.300000,0.047019
787.905888,0.254545,0.057854
787.939317,0.159091,0.081153
787.972745,0.000000,0.032141
788.006173,0.365909,0.166092
788.039601,-0.070455,0.020423
788.073028,0.227273,0.223838
788.106456,0.254545,0.116952
788.139883,0.027273,0.110128
788.173309,0.279545,0.096604
788.206736,0.184091,0.030555
788.240162,0.161364,0.058421
788.273588,0.206818,0.097774
788.307013,0.665909,0.206140
788.340439,0.093182,0.032201
788.373864,0.113636,0.037689
788.407288,0.143182,0.078623
788.440713,0.254545,0.140982
788.474137,-0.022727,0.037689
788.507561,0.375000,0.076018
788.540985,0.090909,0.136364
788.574408,0.115909,0.112970
788.607831,0.372727,0.007873
788.641254,0.352273,0.190405
788.674677,0.025000,0.087751
788.708099,-0.172727,0.367957
788.741521,0.575000,0.137997
788.774943,0.854545,0.297302
788.808364,1.638636,0.361362
788.841785,1.646212,0.355744
788.875206,2.040909,0.396544
788.908627,0.377273,0.112884
788.942047,0.272727,0.140100
788.975467,0.109091,0.101843
789.008887,0.131818,0.148042
789.042306,-0.025000,0.067831
789.075726,0.254545,0.066183
789.109145,0.062121,0.018603
789.142563,0.090909,0.045455
789.175982,-0.022727,0.081153
789.209400,0.250000,0.087286
789.242817,0.136364,0.039365
789.276235,-0.002273,0.046619
789.309652,0.020455,0.099085
789.343069,-0.124242,0.066959
789.376486,0.279545,0.032679
789.409902,-0.047727,0.051363
789.443319,0.000000,0.000000
789.476735,-0.217424,0.098300
789.510150,-0.002273,0.033767
789.543565,0.465909,0.085605
789.576980,-0.031061,0.066910
789.610395,0.200000,0.161476
789.643810,0.265909,0.258799
789.677224,-0.165909,0.053626
789.710638,-0.002273,0.107102
789.744052,0.204545,0.081153
789.777465,-0.070455,0.049832
789.810878,0.047727,0.040064
789.844291,0.293182,0.210283
789.877703,0.118182,0.068484
789.911116,0.155303,0.037258
789.944528,0.465909,0.085605
789.977939,0.113636,0.037689
790.011351,-0.125000,0.121729
790.044762,0.211364,0.061269
790.078173,0.227273,0.099066
790.111583,0.488636,0.112924
790.144994,0.115909,0.019117
790.178404,0.072727,0.052223
790.211813,-0.743182,0.039151
790.245223,0.018182,0.084060
790.278632,0.204545,0.087286
790.312041,0.090909,0.055670
790.345450,0.554545,0.201390
790.378858,0.186364,0.003936
790.412266,0.252273,0.057530
790.445674,-0.047727,0.068588
790.479081,-0.120455,0.055052
790.512488,0.440909,0.140597
790.545895,0.186364,0.096504
790.579302,0.534091,0.116304
790.612708,0.245455,0.151916
790.646115,1.797727,0.239670
790.679520,4.215909,0.643502
790.712926,3.547727,0.209544
790.746331,1.273485,0.072112
790.779736,0.038636,0.104564
790.813141,0.062121,0.049114
790.846545,0.022727,0.019682
790.879949,0.197727,0.240488
790.913353,-0.020455,0.075404
790.946757,-0.045455,0.050820
790.980160,0.163636,0.098753
791.013563,0.297727,0.112051
791.046966,0.227273,0.075378
791.080368,0.277273,0.070528
791.113771,0.138636,0.067831
791.147173,0.295455,0.148599
791.180574,0.000000,0.032141
791.213976,0.065909,0.082282
791.247377,0.020455,0.060163
791.280777,0.388636,0.116126
791.314178,0.090909,0.055670
791.347578,0.047727,0.051363
791.380978,0.093182,0.001968
791.414378,0.152273,0.200294
791.447777,-0.279545,0.096604
791.481176,0.254545,0.116952
791.514575,0.186364,0.055809
791.547973,0.068182,0.098412
791.581372,0.302273,0.074230
791.614770,0.217424,0.037397
791.648167,0.115909,0.103422
791.681565,0.188636,0.037119
791.714962,0.124242,0.037206
791.748359,0.043182,0.041333
791.781755,0.159091,0.137777
791.815152,0.124242,0.018741
791.848548,0.184091,0.071175
791.881943,0.031061,0.018568
791.915339,0.227273,0.171587
791.948734,0.502273,0.187562
791.982129,0.000000,0.032141
792.015523,0.163636,0.067726
792.048918,0.456818,0.194458
792.082312,0.154545,0.154612
792.115705,0.254545,0.112448
792.149099,0.506818,0.233514
792.182492,0.181818,0.090909
792.215885,-0.300000,0.047019
792.249278,0.225000,0.226940
792.282670,0.062121,0.177025
792.316062,0.163636,0.021320
792.349454,0.025000,0.067831
792.382845,0.093182,0.064313
792.416236,0.629545,0.183891
792.449627,0.888636,0.258340
792.483018,0.820455,0.286046
792.516408,2.529545,0.429520
792.549798,3.447727,0.147758
792.583188,4.656818,0.486601
792.616578,0.931818,0.275319
792.649967,0.815909,0.084451
792.683356,0.204545,0.081153
792.716745,0.163636,0.067726
792.750133,0.177273,0.156851
792.783521,0.161364,0.086863
792.816909,0.345455,0.120433
792.850296,0.111364,0.068963
792.883684,0.025000,0.067831
792.917071,-0.095455,0.035428
792.950457,0.062121,0.049114
792.983844,-0.184091,0.030555
793.017230,0.322727,0.121181
793.050616,0.131818,0.125371
793.084001,-0.095455,0.057631
793.117386,0.209091,0.133840
793.150771,0.209091,0.049167
793.184156,0.115909,0.019117
793.217541,0.115909,0.049311
793.250925,-0.047727,0.051363
793.284309,0.186364,0.064403
793.317692,0.072727,0.061322
793.351075,0.425000,0.239304
793.384458,0.322727,0.047835
793.417841,0.031061,0.049101
793.451223,0.070455,0.020423
793.484606,0.093182,0.055705
793.517988,0.354545,0.175633
793.551369,0.161364,0.066679
793.584750,0.279545,0.064553
793.618131,0.111364,0.068963
793.651512,0.345455,0.157590
793.684893,0.115909,0.067065
793.718273,0.136364,0.039365
793.751653,0.065909,0.130771
793.785032,0.065909,0.088337
793.818411,0.154545,0.120861
793.851790,-0.031818,0.111038
793.885169,-0.070455,0.020423
793.918548,-0.095455,0.086334
793.951926,0.197727,0.157406
793.985304,-0.025000,0.038753
794.018681,0.445455,0.223283
794.052059,-0.072727,0.061322
794.085436,0.343182,0.161039
794.118812,0.124242,0.018741
794.152189,0.136364,0.068182
794.185565,0.090909,0.071870
794.218941,0.093182,0.055705
794.252317,0.124242,0.066959
794.285692,-0.077273,0.139120
794.319067,0.209091,0.066959
794.352442,1.495455,0.383027
794.385816,3.481818,0.463034
794.419190,7.413636,1.432292
794.452564,8.634848,0.729071
794.485938,4.072727,0.288269
794.519311,1.553030,0.437611
794.552684,0.279545,0.032679
794.586057,0.293182,0.160074
794.619429,0.072727,0.076331
794.652802,0.031061,0.018568
794.686173,0.181818,0.055670
794.719545,0.397727,0.090017
794.752916,0.002273,0.261322
794.786287,-0.006818,0.143502
794.819658,-0.238636,0.077698
794.853029,-0.097727,0.134969
794.886399,0.090909,0.045455
794.919769,0.131818,0.154863
794.953138,0.161364,0.036699
794.986508,-0.425000,0.093341
795.019877,-0.025000,0.098824
795.053245,-0.062121,0.049114
795.086614,0.070455,0.074715
795.119982,0.275000,0.083837
795.153350,0.429545,0.303141
795.186718,0.568182,0.501418
795.220085,0.652273,0.161296
795.253452,0.254545,0.057854
795.286819,0.256818,0.050654
795.320185,0.124242,0.018741
795.353551,-0.002273,0.056625
795.386917,0.375000,0.099553
795.420283,0.320455,0.280668
795.453648,0.325000,0.161935
795.487013,0.124242,0.098228
795.520378,0.165909,0.062521
795.553742,0.000000,0.064282
795.587107,0.088636,0.057530
795.620471,-0.159091,0.087286
795.653834,0.252273,0.121133
795.687197,0.275000,0.083837
795.720560,0.395455,0.133821
795.753923,0.184091,0.084451
795.787286,0.234091,0.105057
795.820648,0.188636,0.058685
795.854010,-0.090909,0.055670
795.887371,0.554545,0.182555
795.920733,0.277273,0.043301
795.954094,0.452273,0.395747
795.987454,0.204545,0.087286
796.020815,0.225000,0.100893
796.054175,0.765909,0.162889
796.087535,0.388636,0.154324
796.120894,0.638636,0.394177
796.154254,0.088636,0.092059
796.187613,0.652273,0.086147
796.220971,1.054545,0.323909
796.254330,3.261364,0.314251
796.287688,9.745455,0.940832
796.321046,21.386364,1.257775
796.354403,24.040909,1.649134
796.387761,8.634848,1.489126
796.421118,1.025000,0.275467
796.454474,0.621212,0.262104
796.487831,0.372727,0.195666
796.521187,0.279545,0.064553
796.554543,0.545455,0.274615
796.587898,0.106818,0.175114
796.621254,0.163636,0.074966
796.654609,-0.138636,0.021651
796.687963,0.140909,0.069048
796.721318,-0.027273,0.069976
796.754672,-0.325000,0.103571
796.788026,0.163636,0.038569
796.821379,-0.062121,0.103328
796.854732,0.250000,0.117546
796.888085,0.124242,0.080930
796.921438,0.159091,0.113067
796.954790,0.045455,0.068182
796.988142,0.390909,0.111062
797.021494,0.248485,0.049376
797.054846,-0.043182,0.104909
797.088197,0.025000,0.067831
797.121548,0.365909,0.139004
797.154899,0.070455,0.038081
797.188249,0.062121,0.161779
797.221599,0.115909,0.037397
797.254949,0.209091,0.049167
797.288298,0.138636,0.152302
797.321648,0.234091,0.100019
797.354996,-0.186364,0.032381
797.388345,0.031061,0.092786
797.421693,0.525000,0.215379
797.455041,0.156818,0.123037
797.488389,0.229545,0.103422
797.521737,0.093182,0.055705
797.555084,0.181818,0.071870
797.588431,-0.238636,0.077698
797.621777,0.138636,0.067831
797.655124,-0.006818,0.153922
797.688470,0.095455,0.035428
797.721815,0.206818,0.125531
797.755161,0.022727,0.103528
797.788506,0.420455,0.029524
797.821851,0.186364,0.032381
797.855196,0.320455,0.092340
797.888540,0.388636,0.285775
797.921884,-0.031061,0.037119
797.955228,0.186364,0.085129
797.988571,0.225000,0.095637
798.021914,0.068182,0.087286
798.055257,-0.229545,0.092897
798.088599,0.643182,0.127895
798.121942,1.188636,0.318237
798.155284,5.193182,0.982856
798.188625,15.122727,0.849365
798.221967,24.956818,0.599977
798.255308,27.675000,1.216189
798.288649,8.293182,0.636935
798.321989,1.739394,0.088840
798.355329,0.413636,0.147342
798.388669,-0.370455,0.042321
798.422009,0.381818,0.275816
798.455348,0.204545,0.081153
798.488687,0.465909,0.111775
798.522026,0.395455,0.018603
798.555365,0.031061,0.074230
798.588703,0.163636,0.098753
798.622041,0.275000,0.160074
798.655378,0.206818,0.073671
798.688716,0.209091,0.018741
798.722053,0.481818,0.254586
798.755389,0.211364,0.041082
798.788726,0.209091,0.080930
798.822062,0.031061,0.037119
798.855398,0.209091,0.037206
798.888733,0.300000,0.234300
798.922069,-0.031061,0.018568
798.955404,0.370455,0.123373
798.988738,0.479545,0.157307
799.022073,0.372727,0.056224
799.055407,0.259091,0.055064
799.088741,-0.072727,0.061322
799.122074,0.852273,0.337626
799.155408,0.652273,0.179484
799.188741,0.572727,0.307516
799.222073,0.400000,0.134687
799.255406,-0.022727,0.067228
799.288738,0.093182,0.111358
799.322069,0.217424,0.074369
799.355401,0.310606,0.130063
799.388732,-0.143182,0.055519
799.422063,0.436364,0.178492
799.455394,0.113636,0.126029
799.488724,0.343182,0.096978
799.522054,0.136364,0.050820
799.555384,0.093182,0.032201
799.588713,0.045455,0.050820
799.622042,-0.240909,0.142784
799.655371,0.659091,0.348217
799.688700,-0.434848,0.113249
799.722028,0.248485,0.067113
799.755356,0.252273,0.140850
799.788684,0.393182,0.160815
799.822011,-0.155303,0.129939
799.855338,0.304545,0.042336
799.888665,-0.062121,0.080898
799.921992,0.281818,0.059786
799.955318,0.559091,0.211095
799.988644,0.372727,0.111618
800.021969,1.770455,0.337794
800.055295,8.490909,1.008005
800.088620,31.665909,0.623021
800.121945,59.052273,2.037252
800.155269,61.293182,1.741064
800.188593,27.202273,1.601782
800.221917,6.709091,0.265899
800.255241,0.279545,0.192938
800.288564,0.341667,0.019911
800.321887,0.786364,0.373634
800.355210,0.186364,0.128625
800.388532,0.248485,0.130003
800.421854,0.086364,0.162671
800.455176,-0.027273,0.062158
800.488498,0.800000,0.283936
800.521819,0.838636,0.354143
800.555140,0.170455,0.292986
800.588461,0.627273,0.306709
800.621781,0.475000,0.292827
800.655101,0.161364,0.196308
800.688421,0.081818,0.193008
800.721740,0.561364,0.153754
800.755060,0.062121,0.037137
800.788379,0.509091,0.318117
800.821697,0.611364,0.458115
800.855015,0.186364,0.085129
800.888334,0.088636,0.057530
800.921651,0.022727,0.098412
800.954969,-0.211364,0.025587
800.988286,0.047727,0.023918
801.021603,-0.163636,0.038569
801.054919,0.118182,0.039886
801.088235,0.693182,0.092842
801.121551,0.490909,0.090682
801.154867,0.397727,0.197724
801.188183,0.310606,0.019682
801.221498,0.124242,0.092821
801.254812,0.393182,0.234066
801.288127,0.197727,0.173037
801.321441,0.279545,0.096604
801.354755,0.347727,0.195992
801.388069,0.370455,0.053142
801.421382,-0.593182,0.215739
801.454695,-0.140909,0.099664
801.488008,0.211364,0.061269
801.521320,0.259091,0.063758
801.554632,0.279545,0.032679
801.587944,0.248485,0.081057
801.621256,0.504545,0.181292
801.654567,0.277273,0.166438
801.687878,0.318182,0.145526
801.721189,-0.050000,0.077506
801.754499,-0.029545,0.137246
801.787809,0.272727,0.140100
801.821119,0.393182,0.234066
801.854428,0.490909,0.150619
801.887737,0.302273,0.133816
801.921046,1.334091,0.478282
801.954355,4.224242,0.143884
801.987663,18.297727,1.146299
802.020971,48.284848,0.889354
802.054279,92.270455,3.968211
802.087586,59.791667,1.317925
802.120894,14.971212,1.085752
802.154200,2.640909,0.387052
802.187507,2.113636,0.325207
802.220813,0.279545,0.096604
802.254119,0.496970,0.188623
802.287425,0.540909,0.165191
802.320730,0.593182,0.268824
802.354035,-0.528030,0.050347
802.387340,0.459091,0.081407
802.420644,0.165909,0.089672
802.453949,-0.090909,0.071870
802.487252,0.259091,0.055064
802.520556,0.124242,0.018741
802.553859,0.259091,0.063758
802.587162,0.413636,0.111410
802.620465,0.200000,0.140982
802.653767,0.093182,0.064313
802.687069,0.293182,0.215139
802.720371,0.179545,0.098037
802.753673,0.259091,0.055064
802.786974,0.409091,0.288377
802.820275,0.229545,0.074369
802.853576,0.479545,0.187286
802.886876,0.140909,0.025206
802.920176,0.247727,0.197489
802.953476,-0.045455,0.113636
802.986775,0.302273,0.133816
803.020074,0.776515,0.189043
803.053373,0.177273,0.127819
803.086672,0.254545,0.066183
803.119970,0.000000,0.055670
803.153268,0.156818,0.104909
803.186565,0.320455,0.097774
803.219863,0.470455,0.316365
803.253160,0.225000,0.146776
803.286457,0.422727,0.099248
803.319753,0.095455,0.133357
803.353049,-0.097727,0.076289
803.386345,0.086364,0.152848
803.419641,0.363636,0.190150
803.452936,0.045455,0.093707
803.486231,0.031061,0.037119
803.519525,0.040909,0.085129
803.552820,0.227273,0.093707
803.586114,0.693182,0.214032
803.619408,0.481818,0.363267
803.652701,0.465909,0.170360
803.685994,0.217424,0.103422
803.719287,0.247727,0.172349
803.752580,0.248485,0.049376
803.785872,0.528030,0.098824
803.819164,0.970455,0.170784
803.852456,3.052273,0.307085
803.885747,10.277273,1.113875
803.919038,44.665152,1.484053
803.952329,94.352273,1.255399
803.985620,136.904545,2.069509
804.018910,76.719697,3.887809
804.052200,18.000000,1.156637
804.085489,2.206818,0.531307
804.118779,1.661364,0.330686
804.152068,0.113636,0.037689
804.185357,0.229545,0.121771
804.218645,0.631818,0.219445
804.251933,1.175000,0.254167
804.285221,0.577273,0.260195
804.318508,0.095455,0.080128
804.351796,0.869697,0.159610
804.385083,0.436364,0.084060
804.418369,0.097727,0.114243
804.451656,0.372727,0.128806
804.484942,-0.097727,0.061269
804.518227,-0.143182,0.045270
804.551513,0.406818,0.255222
804.584798,0.113636,0.037689
804.618083,-0.031061,0.037119
804.651367,0.327273,0.070124
804.684652,0.559091,0.170485
804.717936,-0.062121,0.049114
804.751219,0.663636,0.199016
804.784503,0.047727,0.023918
804.817786,0.315909,0.190024
804.851068,0.372727,0.033091
804.884351,0.422727,0.174675
804.917633,0.584091,0.257298
804.950915,0.336364,0.235181
804.984196,0.131818,0.148042
805.017478,-0.062121,0.037137
805.050759,0.528030,0.194059
805.084039,0.225000,0.184228
805.117320,0.062121,0.018603
805.150600,0.231818,0.020706
805.183879,0.352273,0.107054
805.217159,0.124242,0.074273
805.250438,0.895455,0.321629
805.283717,0.209091,0.112907
805.316995,0.604545,0.259798
805.350274,0.445455,0.262419
805.383552,0.350000,0.099248
805.416829,0.384091,0.238157
805.450107,1.611364,0.377784
805.483384,0.547727,0.223846
805.516660,0.284091,0.128941
805.549937,0.341667,0.049624
805.583213,0.434848,0.067535
805.616489,0.484091,0.186679
805.649764,0.881818,0.327052
805.683040,1.043182,0.123037
805.716315,0.225000,0.123874
805.749589,0.768182,0.067535
805.782864,5.227273,0.698656
805.816138,19.300000,0.664119
805.849411,87.277273,3.997082
805.882685,223.838636,2.997503
805.915958,302.250758,6.885237
805.949231,194.781818,4.923061
805.982504,36.340909,0.908167
806.015776,4.884091,0.214056
806.049048,0.763636,0.185084
806.082319,-0.093182,0.111358
806.115591,1.138636,0.497259
806.148862,0.025000,0.087751
806.182133,0.500000,0.232885
806.215403,0.745455,0.179646
806.248673,0.277273,0.135661
806.281943,0.211364,0.061269
806.315213,-0.027273,0.139138
806.348482,0.177273,0.192351
806.381751,0.093182,0.147303
806.415019,-0.325000,0.049624
806.448288,0.465909,0.096925
806.481556,0.559091,0.056909
806.514823,0.115909,0.081017
806.548091,0.513636,0.044710
806.581358,0.225000,0.115233
806.614625,0.155303,0.074299
806.647891,0.186364,0.140156
806.681158,0.254545,0.057854
806.714424,0.347727,0.097403
806.747689,0.279545,0.085242
806.780955,0.070455,0.113198
806.814220,0.493182,0.375906
806.847484,0.763636,0.229894
806.880749,1.206818,0.506317
806.914013,0.181818,0.132522
806.947277,0.343182,0.225227
806.980540,0.679545,0.449235
807.013803,0.227273,0.081944
807.047066,0.115909,0.103422
807.080329,0.634091,0.262505
807.113591,0.327273,0.028020
807.146853,0.643182,0.119545
807.180115,0.327273,0.083567
807.213376,0.211364,0.180775
807.246637,0.643182,0.290756
807.279898,-0.002273,0.096978
807.313159,0.165909,0.105547
807.346419,0.243182,0.193205
807.379679,0.031061,0.098195
807.412938,0.434848,0.206843
807.446198,0.550000,0.208831
807.479457,0.236364,0.185084
807.512715,0.248485,0.037483
807.545974,0.304545,0.119118
807.579232,0.579545,0.123832
807.612490,0.631818,0.061111
807.645747,0.590152,0.039151
807.679004,2.422727,0.644057
807.712261,2.484848,0.294579
807.745518,14.618182,1.021079
807.778774,78.036364,1.961183
807.812030,278.270455,4.710098
807.845285,512.100000,8.671380
807.878541,466.592424,11.869536
807.911796,139.928030,4.042337
807.945051,17.313636,0.279120
807.978305,2.138636,0.601697
808.011559,1.615152,0.660625
808.044813,0.113636,0.059047
808.078066,-0.031061,0.018568
808.111320,0.088636,0.086266
808.144573,0.413636,0.120326
808.177825,0.621212,0.145526
808.211078,0.715909,0.187672
808.244330,0.400000,0.340090
808.277581,0.552273,0.182198
808.310833,0.250000,0.191166
808.344084,0.279545,0.005905
808.377335,0.714394,0.051363
808.410585,0.613636,0.225848
808.443835,0.575000,0.298816
808.477085,-0.093182,0.055705
808.510335,-0.143182,0.200680
808.543584,0.465909,0.200963
808.576833,-0.062121,0.080898
808.610082,0.277273,0.070528
808.643330,-0.425000,0.103820
808.676578,0.872727,0.355535
808.709826,0.436364,0.217613
808.743073,-0.045455,0.050820
808.776320,0.279545,0.147408
808.809567,0.248485,0.209190
808.842814,0.627273,0.128806
808.876060,0.621212,0.134456
808.909306,0.134091,0.100380
808.942552,0.340909,0.161907
808.975797,0.217424,0.098300
809.009042,0.818182,0.387032
809.042287,0.062121,0.018603
809.075531,0.436364,0.281745
809.108775,-0.161364,0.036699
809.142019,0.310606,0.049533
809.175262,0.327273,0.114812
809.208506,0.445455,0.129605
809.241748,0.683333,0.159205
809.274991,0.918182,0.172068
809.308233,0.745455,0.193489
809.341475,0.600000,0.248050
809.374717,0.318182,0.138245
809.407958,0.590152,0.130494
809.441199,0.229545,0.121771
809.474440,0.525000,0.222458
809.507680,0.338636,0.169631
809.540921,0.786364,0.190516
809.574160,0.310606,0.158685
809.607400,0.509091,0.044998
809.640639,1.831818,0.450820
809.673878,4.943182,0.806958
809.707117,23.586364,0.913747
809.740355,106.959091,1.381854
809.773593,346.193182,5.455927
809.806831,569.972727,9.875440
809.840068,427.735606,12.563113
809.873305,90.790152,2.891692
809.906542,14.881818,1.134243
809.939778,4.934091,0.814673
809.973015,2.002273,0.458059
810.006250,1.206818,0.313692
810.039486,1.513636,0.414030
810.072721,1.943182,0.302953
810.105956,1.695455,0.521377
810.139191,1.072727,0.336548
810.172425,0.372727,0.116154
810.205659,0.962879,0.260589
810.238893,0.656818,0.164215
810.272126,0.693182,0.087101
810.305359,0.322727,0.151491
810.338592,0.155303,0.321964
810.371825,0.970455,0.144577
810.405057,0.818182,0.285677
810.438289,0.643182,0.100791
810.471520,0.397727,0.070738
810.504751,0.621212,0.152459
810.537982,0.297727,0.129181
810.571213,0.434091,0.203288
810.604443,0.129545,0.229272
810.637673,0.124242,0.066959
810.670903,0.140909,0.051975
810.704133,0.284091,0.116304
810.737362,0.403788,0.134086
810.770591,0.486364,0.101309
810.803819,0.688636,0.280539
810.837047,0.343182,0.072612
810.870275,0.627273,0.222820
810.903503,0.690909,0.273030
810.936730,-0.279545,0.085242
810.969957,0.652273,0.223107
811.003184,0.740909,0.294465
811.036410,-0.062121,0.049114
811.069636,0.475000,0.326204
811.102862,0.155303,0.049206
811.136087,-0.124242,0.177039
811.169312,0.088636,0.107583
811.202537,0.334091,0.267823
811.235762,0.188636,0.087041
811.268986,0.248485,0.037483
811.302210,0.331818,0.176440
811.335433,0.434091,0.402733
811.368656,0.256818,0.122322
811.401879,1.150000,0.288797
811.435102,2.234091,0.634481
811.468324,0.062121,0.321950
811.501546,1.286364,0.427533
811.534768,0.665909,0.551888
811.567990,1.125000,0.431631
811.601211,1.593182,0.422817
811.634432,5.311364,0.597156
811.667652,22.097727,1.512904
811.700872,94.929545,1.191570
811.734092,287.900758,10.693803
811.767312,424.443182,9.050883
811.800531,328.377273,6.109430
811.833750,76.390909,1.728451
811.866969,9.007576,0.822825
811.900187,1.428788,0.344998
811.933405,0.869697,0.162814
811.966623,0.602273,0.339913
811.999840,0.136364,0.075378
812.033057,0.575000,0.271653
812.066274,0.447727,0.361405
812.099490,0.134091,0.083529
812.132707,0.479545,0.143574
812.165923,0.129545,0.139671
812.199138,0.356818,0.265304
812.232353,0.027273,0.156604
812.265568,0.217424,0.074369
812.298783,0.186364,0.085129
812.331997,0.377273,0.188335
812.365211,0.097727,0.109628
812.398425,0.528030,0.103920
812.431638,0.088636,0.273113
812.464851,0.186364,0.096504
812.498064,0.315909,0.184508
812.531277,0.186364,0.115954
812.564489,-0.124242,0.018741
812.597701,0.325000,0.317180
812.630912,0.056818,0.206665
812.664123,-0.047727,0.068588
