#{
#    "background_file": "Backgrounds\\\\bg_785.995nm_13bin_219st_244en_10.0s_110g_4x_13_seq.txt",
#    "ccd_image_settings": [
#        1,
#        13,
#        1,
#        1600,
#        219,
#        244
#    ],
#    "ccd_temperature": "-87",
#    "cdRatios": {
#        "mean": 0.9409903932897815,
#        "std": 0.008642497557518556
#    },
#    "center_lambda": 786.0,
#    "comments": "",
#    "dark_region": 0.60117708814002,
#    "date": "10/22/20 17:36:49PM",
#    "eff_field": 1.5,
#    "exposure": 10.0,
#    "fel_lambda": "15.0",
#    "fel_pol": "H",
#    "fel_pulses": 43,
#    "fel_pyro_cal": "0.012",
#    "fel_reprate": "1.07",
#    "fel_transmission": "1.0",
#    "fel_transmission_fits": {
#        "A": 1.0,
#        "C": 0.0,
#        "Mu": 0.0
#    },
#    "fieldInt": {
#        "mean": 4981.901335227272,
#        "std": 258.4460193025845
#    },
#    "fieldStrength": {
#        "mean": 32.36040340909091,
#        "std": 0.8853493608101255
#    },
#    "fpTime": {
#        "mean": 1.12304854146368,
#        "std": 0.07283306946053059
#    },
#    "gain": 110,
#    "grating": 3,
#    "images_in_sequence": [
#        "hsg_820nm_c123_a90_HAna493.txt",
#        "hsg_820nm_c123_a90_HAna494.txt",
#        "hsg_820nm_c123_a90_HAna495.txt",
#        "hsg_820nm_c123_a90_HAna496.txt"
#    ],
#    "nir_lambda": "819.98",
#    "nir_pola": "90",
#    "nir_polg": "0",
#    "nir_power": "100.0",
#    "pulseEnergies": {
#        "mean": 1.529998106060606,
#        "std": 0.08494257976158073
#    },
#    "pyroVoltage": {
#        "mean": 0.13559434411929083,
#        "std": 0.008146578789623235
#    },
#    "rotatorAngle": 180.0,
#    "sample_Temp": "55",
#    "sample_name": "L001218.C1",
#    "series": "820_Fan",
#    "slits": "60",
#    "spec_step": "",
#    "window_trans": 0.92,
#    "y_max": 2,
#    "y_min": 1
#}
#
#
#
#
#
#
#
#
#
#
#
#
#
#
#
#
#
#
#
#
#
#
#
#
#
#
Wavelength,Signal,error
nm,arb. u.,arb.u.
Wavelength,820_Fan,error
759.194366,-0.095455,0.080128
759.228015,0.140909,0.131012
759.261663,0.436364,0.224621
759.295311,-0.047727,0.068588
759.328959,0.206818,0.289724
759.362607,-0.118182,0.039886
759.396254,-0.327273,0.042640
759.429901,-0.115909,0.067065
759.463548,0.161364,0.036699
759.497194,-0.095455,0.148042
759.530841,0.062121,0.018603
759.564487,-0.090909,0.055670
759.598133,0.047727,0.040064
759.631779,-0.248485,0.103453
759.665424,-0.124242,0.018741
759.699069,-0.138636,0.021651
759.732714,-0.093182,0.032201
759.766359,-0.045455,0.093707
759.800003,0.093182,0.032201
759.833648,0.140909,0.040846
759.867292,-0.163636,0.081565
759.900935,-0.093182,0.032201
759.934579,0.279545,0.032679
759.968222,0.181818,0.238366
760.001865,0.104545,0.273739
760.035508,0.254545,0.097701
760.069151,0.065909,0.138445
760.102793,0.031061,0.018568
760.136435,-0.161364,0.086863
760.170077,-0.027273,0.069976
760.203718,-0.093182,0.055705
760.237360,-0.329545,0.174109
760.271001,0.062121,0.049114
760.304642,-0.118182,0.088257
760.338283,-0.279545,0.032679
760.371923,-0.115909,0.019117
760.405563,-0.031061,0.018568
760.439203,0.000000,0.055670
760.472843,0.155303,0.037258
760.506482,-0.143182,0.078623
760.540122,0.025000,0.087751
760.573761,0.124242,0.049167
760.607399,0.459091,0.372637
760.641038,0.020455,0.075404
760.674676,0.184091,0.054770
760.708314,-0.027273,0.069976
760.741952,0.000000,0.032141
760.775589,-0.186364,0.085129
760.809227,0.095455,0.102726
760.842864,0.250000,0.191166
760.876501,-0.341667,0.019911
760.910137,0.118182,0.068484
760.943774,0.279545,0.032679
760.977410,-0.025000,0.038753
761.011046,-0.155303,0.037258
761.044681,0.070455,0.074715
761.078317,0.136364,0.075378
761.111952,0.020455,0.104168
761.145587,-0.006818,0.213040
761.179221,-0.095455,0.035428
761.212856,-0.434848,0.103727
761.246490,0.159091,0.113067
761.280124,-0.022727,0.093015
761.313758,-0.155303,0.049206
761.347391,0.000000,0.085038
761.381024,-0.093182,0.055705
761.414657,-0.286364,0.096075
761.448290,0.341667,0.067295
761.481923,0.090909,0.045455
761.515555,0.059091,0.188335
761.549187,-0.310606,0.037689
761.582819,0.038636,0.099502
761.616450,-0.277273,0.070528
761.650082,-0.027273,0.192150
761.683713,-0.186364,0.064403
761.717344,-0.190909,0.100925
761.750974,-0.163636,0.103851
761.784605,-0.281818,0.138095
761.818235,-0.025000,0.059732
761.851865,-0.254545,0.035791
761.885494,-0.327273,0.163131
761.919124,-0.062121,0.049114
761.952753,-0.097727,0.088804
761.986382,0.095455,0.057631
762.020010,0.209091,0.037206
762.053639,-0.140909,0.051975
762.087267,0.181818,0.055670
762.120895,0.002273,0.056625
762.154523,-0.124242,0.037206
762.188150,-0.113636,0.108402
762.221777,0.020455,0.099085
762.255404,0.248485,0.092932
762.289031,-0.070455,0.038081
762.322658,0.165909,0.077298
762.356284,-0.155303,0.018844
762.389910,-0.375000,0.076018
762.423536,0.043182,0.118765
762.457161,-0.124242,0.037206
762.490786,0.088636,0.065899
762.524411,0.040909,0.120326
762.558036,-0.093182,0.055705
762.591661,0.000000,0.064282
762.625285,-0.393182,0.215691
762.658909,-0.138636,0.038753
762.692533,0.093182,0.001968
762.726157,-0.031061,0.018568
762.759780,-0.163636,0.021320
762.793403,0.206818,0.097774
762.827026,0.063636,0.124233
762.860649,0.350000,0.051174
762.894271,0.293182,0.309631
762.927893,-0.115909,0.148525
762.961515,0.031061,0.129899
762.995137,0.022727,0.019682
763.028758,0.206818,0.048252
763.062379,0.217424,0.298678
763.096000,-0.031061,0.049101
763.129621,0.062121,0.018603
763.163241,-0.050000,0.053926
763.196862,0.211364,0.118678
763.230481,0.186364,0.064403
763.264101,0.411364,0.215978
763.297721,0.000000,0.140100
763.331340,0.045455,0.122390
763.364959,-0.093182,0.085060
763.398578,-0.370455,0.246324
763.432196,-0.072727,0.088840
763.465814,-0.079545,0.219395
763.499432,0.434091,0.187424
763.533050,0.161364,0.141216
763.566668,0.000000,0.055670
763.600285,0.000000,0.055670
763.633902,0.062121,0.151899
763.667519,0.031061,0.037119
763.701135,-0.006818,0.119977
763.734752,-0.140909,0.025206
763.768368,0.155303,0.018844
763.801984,-0.031061,0.049101
763.835599,-0.113636,0.074516
763.869215,0.062121,0.018603
763.902830,-0.045455,0.022727
763.936444,0.484091,0.449671
763.970059,-0.095455,0.035428
764.003673,0.065909,0.068588
764.037288,0.140909,0.069048
764.070901,-0.259091,0.063758
764.104515,-0.213636,0.072834
764.138128,0.111364,0.082596
764.171742,0.018182,0.105822
764.205354,-0.186364,0.085129
764.238967,0.140909,0.082666
764.272580,-0.122727,0.088227
764.306192,0.227273,0.093707
764.339804,0.031061,0.037119
764.373415,-0.004545,0.214204
764.407027,0.025000,0.038753
764.440638,0.062121,0.018603
764.474249,0.002273,0.102165
764.507860,-0.395455,0.018603
764.541470,0.031061,0.018568
764.575080,0.045455,0.022727
764.608690,0.206818,0.216217
764.642300,-0.559091,0.065358
764.675909,-0.279545,0.032679
764.709519,0.072727,0.109658
764.743128,0.063636,0.197975
764.776736,0.140909,0.040846
764.810345,-0.186364,0.003936
764.843953,-0.261364,0.088571
764.877561,-0.186364,0.032381
764.911169,0.115909,0.019117
764.944776,0.062121,0.018603
764.978384,0.136364,0.122390
765.011991,0.000000,0.064282
765.045598,0.000000,0.032141
765.079204,0.093182,0.032201
765.112810,0.062121,0.049114
765.146416,0.062121,0.193743
765.180022,0.322727,0.144510
765.213628,-0.248485,0.019285
765.247233,-0.002273,0.046619
765.280838,0.234091,0.052654
765.314443,0.322727,0.282432
765.348048,-0.161364,0.036699
765.381652,-0.248485,0.019285
765.415256,0.000000,0.032141
765.448860,-0.217424,0.049311
765.482463,-0.538636,0.067678
765.516067,0.025000,0.038753
765.549670,0.204545,0.152035
765.583273,0.347727,0.223107
765.616875,-0.120455,0.096068
765.650478,-0.325000,0.019911
765.684080,-0.310606,0.081153
765.717682,-0.186364,0.064403
765.751283,-0.248485,0.067113
765.784885,0.161364,0.058421
765.818486,1.211364,0.648690
765.852087,0.000000,0.064282
765.885687,-0.186364,0.085129
765.919288,0.061364,0.247996
765.952888,-0.093182,0.064313
765.986488,0.163636,0.021320
766.020087,-0.325000,0.067295
766.053687,-0.143182,0.078623
766.087286,-0.031061,0.037119
766.120885,-0.163636,0.021320
766.154484,0.022727,0.103528
766.188082,0.279545,0.195597
766.221680,-0.093182,0.001968
766.255278,-0.370455,0.076963
766.288876,0.022727,0.081153
766.322473,0.047727,0.051363
766.356070,0.163636,0.067726
766.389667,-0.062121,0.049114
766.423264,-0.279545,0.032679
766.456860,0.070455,0.038081
766.490457,0.031061,0.018568
766.524053,0.161364,0.141216
766.557648,0.090909,0.071870
766.591244,0.155303,0.066988
766.624839,-0.140909,0.051975
766.658434,0.338636,0.329120
766.692029,-0.031061,0.049101
766.725623,0.045455,0.149033
766.759217,-0.093182,0.064313
766.792811,-0.145455,0.174749
766.826405,-0.184091,0.054770
766.859999,0.300000,0.133066
766.893592,-0.095455,0.035428
766.927185,-0.068182,0.059047
766.960777,-0.434848,0.049948
766.994370,0.124242,0.037206
767.027962,0.090909,0.071870
767.061554,-0.025000,0.087751
767.095146,0.252273,0.129381
767.128737,0.018182,0.189715
767.162329,-0.279545,0.032679
767.195920,-0.025000,0.130375
767.229510,0.250000,0.098412
767.263101,-0.248485,0.049376
767.296691,0.143182,0.106522
767.330281,-0.306818,0.133855
767.363871,-0.327273,0.028020
767.397460,0.088636,0.112282
767.431050,-0.068182,0.098412
767.464639,-0.031061,0.098195
767.498227,0.186364,0.055809
767.531816,0.047727,0.051363
767.565404,-0.563636,0.105822
767.598992,0.086364,0.142350
767.632580,0.093182,0.085060
767.666168,0.213636,0.161139
767.699755,-0.031061,0.121686
767.733342,0.000000,0.000000
767.766929,-0.093182,0.032201
767.800515,-0.002273,0.096978
767.834101,0.977273,0.604199
767.867687,0.045455,0.039365
767.901273,0.061364,0.221597
767.934859,-0.528030,0.050347
767.968444,-0.115909,0.019117
768.002029,0.022727,0.019682
768.035614,-0.031061,0.018568
768.069198,0.063636,0.150550
768.102783,-0.770455,0.049311
768.136367,-0.068182,0.037689
768.169950,-0.124242,0.112907
768.203534,-0.124242,0.018741
768.237117,-0.138636,0.038753
768.270700,-0.004545,0.059396
768.304283,0.061364,0.134586
768.337866,-0.050000,0.077506
768.371448,-0.163636,0.021320
768.405030,-0.236364,0.057135
768.438612,0.000000,0.032141
768.472193,0.186364,0.160754
768.505775,0.002273,0.056625
768.539356,-0.062121,0.018603
768.572936,0.000000,0.000000
768.606517,-0.281818,0.081692
768.640097,-0.070455,0.074715
768.673677,-0.124242,0.103353
768.707257,-0.031061,0.018568
768.740836,-0.031061,0.049101
768.774416,0.062121,0.018603
768.807995,0.045455,0.068182
768.841574,0.047727,0.051363
768.875152,0.093182,0.085060
768.908730,-0.186364,0.032381
768.942308,0.093182,0.032201
768.975886,0.118182,0.118269
769.009464,0.155303,0.037258
769.043041,0.022727,0.019682
769.076618,0.302273,0.018568
769.110195,-0.093182,0.064313
769.143771,0.018182,0.070711
769.177348,0.065909,0.082282
769.210924,-0.231818,0.038233
769.244499,0.138636,0.021651
769.278075,0.000000,0.032141
769.311650,0.229545,0.151963
769.345225,0.370455,0.270318
769.378800,0.163636,0.050206
769.412375,0.090909,0.078730
769.445949,-0.418182,0.037483
769.479523,-0.062121,0.049114
769.513097,-0.050000,0.043301
769.546670,0.000000,0.055670
769.580243,-0.186364,0.064403
769.613816,0.031061,0.018568
769.647389,-0.397727,0.043643
769.680962,-0.027273,0.069976
769.714534,0.454545,0.473470
769.748106,0.256818,0.098981
769.781678,0.186364,0.200760
769.815249,-0.186364,0.032381
769.848820,-0.434848,0.067535
769.882391,-0.095455,0.086334
769.915962,0.070455,0.049832
769.949533,0.022727,0.019682
769.983103,-0.155303,0.018844
770.016673,0.070455,0.067449
770.050243,0.047727,0.068588
770.083812,-0.281818,0.038836
770.117381,-0.186364,0.032381
770.150950,0.547727,0.419691
770.184519,-0.234091,0.041706
770.218088,-0.161364,0.058421
770.251656,-0.124242,0.037206
770.285224,-0.004545,0.141622
770.318791,-0.093182,0.032201
770.352359,0.093182,0.032201
770.385926,0.347727,0.116703
770.419493,0.045455,0.039365
770.453060,-0.468182,0.076971
770.486626,-0.093182,0.032201
770.520192,-0.186364,0.085129
770.553758,0.140909,0.214686
770.587324,-0.090909,0.078730
770.620890,-0.025000,0.038753
770.654455,0.227273,0.252058
770.688020,0.093182,0.032201
770.721584,0.136364,0.145526
770.755149,-0.155303,0.049206
770.788713,-0.155303,0.018844
770.822277,0.115909,0.019117
770.855841,-0.443182,0.094222
770.889404,-0.031061,0.018568
770.922967,-0.217424,0.037397
770.956530,0.065909,0.068588
770.990093,-0.090909,0.085038
771.023655,-0.062121,0.049114
771.057217,0.000000,0.000000
771.090779,0.047727,0.082282
771.124341,-0.434848,0.049948
771.157902,0.090909,0.055670
771.191463,0.068182,0.037689
771.225024,0.000000,0.032141
771.258585,-0.155303,0.049206
771.292145,0.031061,0.037119
771.325705,-0.138636,0.021651
771.359265,0.047727,0.023918
771.392825,0.295455,0.180034
771.426384,0.070455,0.081335
771.459943,0.000000,0.055670
771.493502,0.159091,0.067228
771.527061,-0.002273,0.033767
771.560619,0.025000,0.087751
771.594177,0.161364,0.167947
771.627735,-0.047727,0.051363
771.661293,0.093182,0.085060
771.694850,-0.168182,0.087049
771.728407,0.093182,0.085060
771.761964,0.155303,0.018844
771.795521,-0.000000,0.085038
771.829077,-0.047727,0.068588
771.862633,0.000000,0.195507
771.896189,0.065909,0.202142
771.929744,-0.124242,0.037206
771.963300,0.186364,0.115954
771.996855,0.059091,0.155262
772.030409,0.322727,0.092123
772.063964,0.000000,0.000000
772.097518,-0.093182,0.032201
772.131072,-0.284091,0.072541
772.164626,-0.075000,0.085545
772.198180,0.025000,0.059732
772.231733,-0.002273,0.033767
772.265286,-0.050000,0.077506
772.298839,-0.341667,0.049624
772.332391,-0.031061,0.018568
772.365943,0.118182,0.068484
772.399495,0.390909,0.101334
772.433047,0.245455,0.329882
772.466598,0.134091,0.159913
772.500150,0.338636,0.260827
772.533701,-0.068182,0.059047
772.567251,0.002273,0.056625
772.600802,0.000000,0.000000
772.634352,0.043182,0.052359
772.667902,0.043182,0.104909
772.701452,-0.120455,0.055052
772.735001,-0.062121,0.158554
772.768550,0.070455,0.081335
772.802099,-0.434848,0.038233
772.835648,0.045455,0.093707
772.869196,0.434091,0.374833
772.902744,0.156818,0.142490
772.936292,0.372727,0.140321
772.969840,0.250000,0.103528
773.003387,0.368182,0.082666
773.036934,0.000000,0.000000
773.070481,0.000000,0.064282
773.104028,-0.020455,0.088044
773.137574,0.217424,0.074369
773.171120,-0.186364,0.032381
773.204666,-0.031061,0.018568
773.238212,-0.062121,0.049114
773.271757,-0.068182,0.067228
773.305302,-0.025000,0.067831
773.338847,0.234091,0.100019
773.372391,0.318182,0.250000
773.405936,-0.095455,0.133357
773.439480,0.184091,0.132146
773.473024,-0.031061,0.018568
773.506567,0.093182,0.055705
773.540110,-0.124242,0.049167
773.573653,-0.062121,0.049114
773.607196,0.231818,0.081407
773.640739,0.025000,0.038753
773.674281,-0.279545,0.055982
773.707823,0.109091,0.181932
773.741365,0.070455,0.038081
773.774906,0.118182,0.088257
773.808447,0.072727,0.099793
773.841988,0.209091,0.103353
773.875529,-0.161364,0.066679
773.909070,-0.302273,0.018568
773.942610,-0.341667,0.049624
773.976150,-0.031061,0.037119
774.009689,-0.062121,0.018603
774.043229,-0.395455,0.049114
774.076768,0.000000,0.055670
774.110307,-0.062121,0.037137
774.143845,-0.022727,0.037689
774.177384,-0.184091,0.054770
774.210922,-0.062121,0.018603
774.244460,0.134091,0.070078
774.277997,0.047727,0.051363
774.311535,-0.068182,0.067228
774.345072,0.093182,0.096444
774.378609,-0.403788,0.049832
774.412145,0.161364,0.112741
774.445682,-0.161364,0.036699
774.479218,0.043182,0.094551
774.512754,0.062121,0.018603
774.546289,-0.184091,0.101149
774.579824,-0.325000,0.103571
774.613359,-0.124242,0.018741
774.646894,0.163636,0.021320
774.680429,0.090909,0.167011
774.713963,0.118182,0.068484
774.747497,-0.002273,0.033767
774.781031,0.138636,0.021651
774.814564,-0.372727,0.064763
774.848097,0.097727,0.174967
774.881630,0.234091,0.041706
774.915163,-0.070455,0.020423
774.948696,0.000000,0.000000
774.982228,0.138636,0.067831
775.015760,-0.095455,0.073399
775.049291,-0.140909,0.025206
775.082823,-0.186364,0.064403
775.116354,-0.093182,0.032201
775.149885,0.186364,0.111410
775.183416,-0.279545,0.032679
775.216946,-0.341667,0.074577
775.250476,0.072727,0.109658
775.284006,-0.124242,0.037206
775.317535,-0.213636,0.091673
775.351065,-0.070455,0.074715
775.384594,-0.372727,0.064763
775.418123,0.115909,0.019117
775.451651,-0.004545,0.067535
775.485180,-0.418182,0.081057
775.518708,-0.163636,0.050206
775.552235,0.047727,0.113880
775.585763,-0.302273,0.018568
775.619290,0.155303,0.066988
775.652817,0.000000,0.000000
775.686344,-0.068182,0.037689
775.719870,-0.115909,0.019117
775.753397,0.115909,0.081017
775.786923,0.061364,0.152573
775.820448,-0.068182,0.211681
775.853974,0.062121,0.092793
775.887499,0.031061,0.018568
775.921024,0.000000,0.115887
775.954549,-0.031818,0.227125
775.988073,0.181818,0.160706
776.021597,-0.047727,0.051363
776.055121,0.161364,0.179829
776.088645,0.022727,0.049533
776.122168,-0.163636,0.021320
776.155691,0.070455,0.038081
776.189214,-0.165909,0.053626
776.222737,0.129545,0.139671
776.256259,-0.147727,0.228053
776.289781,0.231818,0.122031
776.323303,0.429545,0.401384
776.356824,0.095455,0.080128
776.390346,0.479545,0.195385
776.423867,0.206818,0.073671
776.457387,-0.425000,0.081526
776.490908,-0.022727,0.019682
776.524428,0.163636,0.067726
776.557948,-0.327273,0.070124
776.591468,-0.068182,0.059047
776.624987,0.045455,0.050820
776.658506,0.115909,0.098300
776.692025,-0.372727,0.056224
776.725544,-0.279545,0.005905
776.759062,0.186364,0.032381
776.792581,-0.029545,0.164624
776.826099,-0.031061,0.080890
776.859616,0.345455,0.120433
776.893134,0.115909,0.019117
776.926651,-0.090909,0.055670
776.960167,-0.115909,0.049311
776.993684,0.065909,0.051363
777.027200,-0.052273,0.086744
777.060716,0.113636,0.037689
777.094232,-0.022727,0.049533
777.127748,-0.248485,0.037483
777.161263,0.206818,0.125531
777.194778,0.000000,0.032141
777.228293,0.229545,0.049311
777.261807,0.022727,0.019682
777.295322,-0.020455,0.118111
777.328836,-0.279545,0.005905
777.362349,-0.155303,0.018844
777.395863,0.227273,0.223838
777.429376,-0.209091,0.074273
777.462889,-0.155303,0.049206
777.496401,-0.031061,0.080890
777.529914,0.062121,0.037137
777.563426,-0.217424,0.121771
777.596938,0.393182,0.032679
777.630449,0.388636,0.210896
777.663961,-0.022727,0.019682
777.697472,0.065909,0.094003
777.730983,-0.120455,0.139856
777.764493,0.000000,0.064282
777.798004,0.093182,0.032201
777.831514,-0.062121,0.098202
777.865023,0.111364,0.082596
777.898533,-0.155303,0.098248
777.932042,0.062121,0.098202
777.965551,0.252273,0.140850
777.999060,-0.403788,0.020423
778.032568,-0.020455,0.075404
778.066076,0.118182,0.068484
778.099584,-0.047727,0.104416
778.133092,-0.068182,0.037689
778.166599,0.211364,0.041082
778.200107,-0.031061,0.018568
778.233613,-0.004545,0.067535
778.267120,-0.231818,0.020706
778.300626,0.397727,0.070738
778.334132,-0.302273,0.049101
778.367638,-0.138636,0.067831
778.401144,0.065909,0.142127
778.434649,-0.045455,0.050820
778.468154,0.155303,0.049206
778.501659,0.154545,0.151235
778.535163,0.043182,0.069337
778.568668,0.361364,0.243731
778.602172,-0.045455,0.050820
778.635675,-0.714394,0.023918
778.669179,-0.124242,0.018741
778.702682,0.093182,0.032201
778.736185,0.070455,0.049832
778.769688,0.000000,0.000000
778.803190,0.063636,0.143524
778.836692,0.090909,0.032141
778.870194,-0.050000,0.105700
778.903696,-0.045455,0.022727
778.937197,0.231818,0.049948
778.970698,0.138636,0.021651
779.004199,-0.155303,0.018844
779.037699,0.140909,0.104718
779.071200,0.415909,0.132848
779.104700,-0.124242,0.049167
779.138199,-0.124242,0.037206
779.171699,0.070455,0.093175
779.205198,0.115909,0.019117
779.238697,-0.093182,0.055705
779.272196,0.131818,0.164565
779.305694,-0.143182,0.055519
779.339192,-0.045455,0.093707
779.372690,0.000000,0.032141
779.406188,0.111364,0.082596
779.439685,-0.186364,0.055809
779.473182,0.118182,0.099274
779.506679,0.088636,0.086266
779.540176,-0.047727,0.040064
779.573672,-0.434848,0.122031
779.607168,0.590152,0.152404
779.640664,0.350000,0.099248
779.674160,0.247727,0.114784
779.707655,0.025000,0.067831
779.741150,-0.093182,0.001968
779.774644,-0.031061,0.037119
779.808139,0.165909,0.077298
779.841633,0.138636,0.038753
779.875127,-0.062121,0.049114
779.908621,0.000000,0.055670
779.942114,-0.341667,0.019911
779.975607,-0.047727,0.023918
780.009100,-0.372727,0.085401
780.042593,-0.004545,0.059396
780.076085,-0.072727,0.235400
780.109577,-0.062121,0.018603
780.143069,0.161364,0.036699
780.176560,-0.072727,0.076331
780.210052,-0.217424,0.049311
780.243543,-0.279545,0.085242
780.277033,0.068182,0.037689
780.310524,-0.140909,0.099664
780.344014,0.227273,0.165457
780.377504,-0.155303,0.018844
780.410994,-0.310606,0.037689
780.444483,-0.093182,0.055705
780.477972,0.209091,0.037206
780.511461,0.115909,0.037397
780.544950,-0.161364,0.036699
780.578438,0.068182,0.059047
780.611926,0.070455,0.067449
780.645414,-0.022727,0.067228
780.678902,-0.097727,0.076289
780.712389,0.031061,0.049101
780.745876,0.062121,0.018603
780.779363,0.124242,0.018741
780.812849,0.090909,0.045455
780.846335,-0.163636,0.038569
780.879821,-0.163636,0.050206
780.913307,0.155303,0.129939
780.946792,0.138636,0.067831
780.980277,0.186364,0.140156
781.013762,-0.022727,0.067228
781.047247,0.111364,0.130968
781.080731,0.204545,0.152035
781.114215,0.161364,0.036699
781.147699,0.575000,0.239304
781.181183,-0.045455,0.068182
781.214666,-0.155303,0.018844
781.248149,0.136364,0.093707
781.281632,-0.022727,0.037689
781.315114,0.000000,0.000000
781.348596,0.163636,0.067726
781.382078,0.254545,0.086483
781.415560,-0.163636,0.050206
781.449041,-0.155303,0.049206
781.482522,0.236364,0.147850
781.516003,-0.045455,0.039365
781.549484,0.300000,0.151235
781.582964,0.031061,0.066910
781.616444,0.156818,0.088920
781.649924,-0.050000,0.095427
781.683404,-0.248485,0.049376
781.716883,-0.115909,0.019117
781.750362,-0.031061,0.018568
781.783841,0.252273,0.137133
781.817319,-0.054545,0.120089
781.850797,-0.031061,0.037119
781.884275,0.124242,0.049167
781.917753,0.209091,0.037206
781.951230,-0.248485,0.037483
781.984707,-0.093182,0.085060
782.018184,0.062121,0.018603
782.051661,-0.279545,0.064553
782.085137,0.018182,0.089995
782.118613,0.184091,0.084451
782.152089,0.254545,0.116952
782.185564,0.031061,0.098195
782.219040,0.115909,0.049311
782.252515,0.093182,0.001968
782.285989,0.072727,0.088840
782.319464,-0.122727,0.113795
782.352938,0.159091,0.067228
782.386412,0.090909,0.106600
782.419885,-0.215909,0.139523
782.453359,-0.372727,0.033091
782.486832,0.231818,0.020706
782.520305,0.090909,0.106600
782.553777,0.062121,0.112884
782.587249,-0.445455,0.066339
782.620721,-0.652273,0.129301
782.654193,0.070455,0.081335
782.687665,0.277273,0.100695
782.721136,0.140909,0.025206
782.754607,0.068182,0.037689
782.788077,-0.095455,0.086334
782.821548,0.093182,0.001968
782.855018,-0.234091,0.026577
782.888488,0.155303,0.066988
782.921957,0.070455,0.038081
782.955427,-0.186364,0.003936
782.988896,0.115909,0.081017
783.022365,0.043182,0.041333
783.055833,-0.115909,0.081017
783.089301,0.070455,0.074715
783.122769,-0.311364,0.116703
783.156237,0.217424,0.037397
783.189704,-0.165909,0.042927
783.223172,0.161364,0.017714
783.256638,0.268182,0.248996
783.290105,0.368182,0.104718
783.323571,0.204545,0.171210
783.357037,-0.031061,0.037119
783.390503,-0.093182,0.064313
783.423969,-0.070455,0.074715
783.457434,0.095455,0.057631
783.490899,0.159091,0.171210
783.524364,-0.062121,0.074239
783.557828,0.304545,0.062117
783.591292,0.140909,0.051975
783.624756,-0.155303,0.066988
783.658220,0.184091,0.071175
783.691683,-0.279545,0.055982
783.725146,-0.070455,0.038081
783.758609,0.155303,0.066988
783.792072,0.652273,0.255485
783.825534,-0.031061,0.037119
783.858996,0.138636,0.021651
783.892458,-0.031061,0.018568
783.925919,-0.186364,0.055809
783.959381,-0.124242,0.080930
783.992842,-0.259091,0.078302
784.026302,0.031061,0.074230
784.059763,-0.124242,0.018741
784.093223,0.322727,0.133357
784.126683,0.111364,0.068963
784.160142,-0.002273,0.072612
784.193601,0.062121,0.049114
784.227060,-0.031061,0.066910
784.260519,-0.025000,0.038753
784.293978,0.138636,0.067831
784.327436,0.124242,0.018741
784.360894,0.090909,0.096424
784.394352,-0.002273,0.056625
784.427809,-0.163636,0.050206
784.461266,0.090909,0.071870
784.494723,0.047727,0.040064
784.528180,-0.248485,0.019285
784.561636,0.093182,0.032201
784.595092,0.022727,0.037689
784.628548,0.545455,0.344676
784.662003,0.256818,0.081842
784.695458,-0.093182,0.055705
784.728913,0.047727,0.068588
784.762368,0.090909,0.071870
784.795823,-0.093182,0.001968
784.829277,0.093182,0.001968
784.862731,0.186364,0.055809
784.896184,0.181818,0.160706
784.929637,-0.209091,0.151916
784.963091,0.134091,0.083529
784.996543,0.302273,0.074230
785.029996,0.325000,0.214128
785.063448,0.393182,0.045836
785.096900,0.738636,0.317522
785.130352,-0.025000,0.117892
785.163803,0.293182,0.393390
785.197254,-0.136364,0.122390
785.230705,-0.138636,0.038753
785.264156,-0.124242,0.049167
785.297606,0.000000,0.032141
785.331056,0.329545,0.177050
785.364506,0.043182,0.052359
785.397955,0.177273,0.172533
785.431405,-0.027273,0.183908
785.464854,-0.528030,0.050347
785.498302,-0.095455,0.047835
785.531751,-0.124242,0.037206
785.565199,-0.072727,0.076331
785.598647,-0.440909,0.056909
785.632094,-0.279545,0.032679
785.665542,-0.165909,0.077298
785.698989,-0.093182,0.055705
785.732436,-0.093182,0.032201
785.765882,-0.095455,0.035428
785.799328,0.090909,0.085038
785.832774,0.163636,0.021320
785.866220,0.365909,0.094823
785.899665,-0.403788,0.020423
785.933111,-0.165909,0.062521
785.966555,-0.279545,0.064553
786.000000,0.020455,0.039414
786.033444,0.000000,0.085038
786.066888,0.138636,0.050347
786.100332,0.070455,0.038081
786.133776,0.020455,0.088044
786.167219,0.293182,0.235759
786.200662,0.115909,0.067065
786.234104,-0.209091,0.037206
786.267547,-0.093182,0.032201
786.300989,-0.031061,0.080890
786.334431,0.045455,0.022727
786.367872,0.022727,0.019682
786.401314,0.124242,0.049167
786.434755,-0.025000,0.117892
786.468196,0.184091,0.078096
786.501636,0.022727,0.081153
786.535076,-0.155303,0.049206
786.568516,0.031061,0.092786
786.601956,0.138636,0.050347
786.635395,0.090909,0.071870
786.668834,-0.186364,0.064403
786.702273,-0.256818,0.050654
786.735712,0.093182,0.064313
786.769150,-0.047727,0.082282
786.802588,-0.140909,0.183557
786.836026,0.088636,0.161360
786.869463,0.388636,0.205939
786.902900,0.550000,0.253519
786.936337,0.807576,0.076162
786.969774,0.618182,0.320511
787.003210,0.248485,0.236975
787.036646,0.124242,0.133840
787.070082,-0.186364,0.064403
787.103518,-0.279545,0.064553
787.136953,-0.140909,0.122874
787.170388,0.124242,0.018741
787.203823,0.062121,0.080898
787.237257,-0.163636,0.050206
787.270691,-0.047727,0.051363
787.304125,0.022727,0.019682
787.337559,0.000000,0.032141
787.370992,-0.259091,0.063758
787.404425,-0.050000,0.053926
787.437858,-0.070455,0.081335
787.471290,-0.341667,0.177167
787.504723,0.000000,0.000000
787.538155,-0.031061,0.049101
787.571586,0.159091,0.121861
787.605018,0.068182,0.037689
787.638449,0.090909,0.045455
787.671880,-0.047727,0.051363
787.705310,0.211364,0.118678
787.738741,-0.213636,0.056909
787.772171,0.045455,0.039365
787.805600,-0.231818,0.020706
787.839030,-0.025000,0.098824
787.872459,0.022727,0.049533
787.905888,0.138636,0.021651
787.939317,0.047727,0.068588
787.972745,-0.027273,0.083443
788.006173,0.140909,0.025206
788.039601,0.165909,0.089672
788.073028,-0.217424,0.019117
788.106456,0.090909,0.106600
788.139883,-0.004545,0.141622
788.173309,0.113636,0.074516
788.206736,-0.138636,0.093452
788.240162,0.002273,0.056625
788.273588,0.047727,0.068588
788.307013,0.275000,0.070445
788.340439,-0.004545,0.162034
788.373864,0.020455,0.050858
788.407288,0.115909,0.037397
788.440713,0.072727,0.076331
788.474137,-0.062121,0.018603
788.507561,0.279545,0.116037
788.540985,-0.138636,0.050347
788.574408,0.136364,0.050820
788.607831,0.155303,0.049206
788.641254,0.093182,0.001968
788.674677,0.106818,0.142599
788.708099,-0.150000,0.358393
788.741521,0.217424,0.019117
788.774943,0.528030,0.130375
788.808364,0.940909,0.337000
788.841785,1.027273,0.518999
788.875206,0.120455,0.139856
788.908627,0.086364,0.099664
788.942047,0.204545,0.204230
788.975467,-0.022727,0.037689
789.008887,0.000000,0.032141
789.042306,-0.118182,0.060473
789.075726,-0.097727,0.061269
789.109145,-0.062121,0.018603
789.142563,0.113636,0.037689
789.175982,-0.496970,0.074966
789.209400,0.018182,0.070711
789.242817,0.068182,0.117546
789.276235,0.000000,0.032141
789.309652,-0.031061,0.049101
789.343069,-0.248485,0.019285
789.376486,0.090909,0.055670
789.409902,-0.031061,0.018568
789.443319,0.062121,0.018603
789.476735,-0.031061,0.018568
789.510150,0.025000,0.038753
789.543565,0.031061,0.066910
789.576980,-0.186364,0.055809
789.610395,-0.027273,0.062158
789.643810,0.438636,0.301312
789.677224,-0.304545,0.042336
789.710638,0.155303,0.121729
789.744052,-0.155303,0.037258
789.777465,-0.209091,0.049167
789.810878,-0.072727,0.076331
789.844291,-0.062121,0.018603
789.877703,0.045455,0.050820
789.911116,0.140909,0.025206
789.944528,0.090909,0.085038
789.977939,0.022727,0.081153
790.011351,-0.093182,0.064313
790.044762,0.161364,0.036699
790.078173,0.061364,0.196913
790.111583,0.093182,0.055705
790.144994,0.047727,0.051363
790.178404,-0.138636,0.021651
790.211813,-0.962879,0.053142
790.245223,-0.279545,0.085242
790.278632,-0.155303,0.103372
790.312041,-0.143182,0.055519
790.345450,0.002273,0.056625
790.378858,0.206818,0.073671
790.412266,0.118182,0.088257
790.445674,0.250000,0.141476
790.479081,0.038636,0.162572
790.512488,0.068182,0.098412
790.545895,0.434091,0.222690
790.579302,0.279545,0.160815
790.612708,0.683333,0.194275
790.646115,1.729545,0.280944
790.679520,2.013636,0.405457
790.712926,1.490909,0.264965
790.746331,0.217424,0.145006
790.779736,-0.140909,0.025206
790.813141,0.045455,0.050820
790.846545,0.161364,0.036699
790.879949,-0.138636,0.021651
790.913353,-0.000000,0.085038
790.946757,-0.161364,0.086863
790.980160,0.002273,0.072612
791.013563,-0.031061,0.037119
791.046966,-0.022727,0.037689
791.080368,0.068182,0.037689
791.113771,0.070455,0.049832
791.147173,0.022727,0.103528
791.180574,0.118182,0.118269
791.213976,0.000000,0.055670
791.247377,-0.279545,0.005905
791.280777,-0.031061,0.103322
791.314178,0.279545,0.111497
791.347578,-0.002273,0.056625
791.380978,-0.022727,0.019682
791.414378,-0.140909,0.051975
791.447777,-0.113636,0.074516
791.481176,0.093182,0.032201
791.514575,0.225000,0.200345
791.547973,0.000000,0.000000
791.581372,0.138636,0.050347
791.614770,-0.186364,0.032381
791.648167,0.062121,0.066920
791.681565,0.062121,0.066920
791.714962,0.279545,0.055982
791.748359,0.070455,0.038081
791.781755,0.209091,0.185586
791.815152,-0.124242,0.018741
791.848548,0.420455,0.070738
791.881943,-0.031061,0.037119
791.915339,-0.095455,0.080128
791.948734,0.254545,0.035791
791.982129,0.204545,0.158685
792.015523,0.227273,0.130558
792.048918,0.256818,0.122322
792.082312,0.043182,0.076424
792.115705,0.163636,0.038569
792.149099,-0.022727,0.037689
792.182492,0.093182,0.064313
792.215885,-0.217424,0.019117
792.249278,0.363636,0.160706
792.282670,-0.062121,0.018603
792.316062,0.163636,0.067726
792.349454,0.065909,0.068588
792.382845,0.031061,0.037119
792.416236,0.481818,0.181078
792.449627,0.248485,0.081057
792.483018,0.776515,0.159395
792.516408,1.925758,0.217838
792.549798,1.136364,0.643226
792.583188,0.993939,0.135451
792.616578,0.440909,0.147762
792.649967,0.465909,0.085605
792.683356,0.068182,0.037689
792.716745,0.068182,0.059047
792.750133,0.070455,0.148699
792.783521,0.043182,0.069337
792.816909,0.140909,0.069048
792.850296,0.155303,0.018844
792.883684,-0.193182,0.088571
792.917071,0.022727,0.049533
792.950457,0.254545,0.170803
792.983844,-0.372727,0.056224
793.017230,0.111364,0.088629
793.050616,-0.062121,0.018603
793.084001,-0.186364,0.032381
793.117386,-0.138636,0.067831
793.150771,0.047727,0.068588
793.184156,0.093182,0.032201
793.217541,-0.070455,0.049832
793.250925,-0.124242,0.049167
793.284309,0.413636,0.304944
793.317692,0.204545,0.257882
793.351075,-0.031061,0.018568
793.384458,-0.031061,0.049101
793.417841,-0.002273,0.033767
793.451223,0.045455,0.050820
793.484606,0.000000,0.032141
793.517988,-0.140909,0.051975
793.551369,0.163636,0.038569
793.584750,0.254545,0.116952
793.618131,0.111364,0.180689
793.651512,-0.168182,0.092793
793.684893,-0.027273,0.069976
793.718273,0.025000,0.098824
793.751653,-0.093182,0.032201
793.785032,-0.124242,0.049167
793.818411,0.300000,0.215945
793.851790,-0.004545,0.171331
793.885169,0.315909,0.419013
793.918548,-0.186364,0.055809
793.951926,0.031061,0.018568
793.985304,-0.124242,0.037206
794.018681,0.140909,0.051975
794.052059,-0.004545,0.162034
794.085436,0.209091,0.098228
794.118812,-0.070455,0.049832
794.152189,-0.163636,0.050206
794.185565,-0.093182,0.064313
794.218941,-0.022727,0.019682
794.252317,0.047727,0.023918
794.285692,-0.234091,0.026577
794.319067,-0.045455,0.159091
794.352442,0.372727,0.056224
794.385816,1.459848,0.325014
794.419190,2.752273,0.383887
794.452564,2.877273,0.936262
794.485938,0.714394,0.162476
794.519311,-0.062121,0.133821
794.552684,0.506818,0.235715
794.586057,-0.188636,0.037119
794.619429,-0.031061,0.129899
794.652802,0.047727,0.075745
794.686173,0.045455,0.068182
794.719545,0.177273,0.266627
794.752916,-0.131818,0.285705
794.786287,-0.115909,0.129978
794.819658,-0.248485,0.081057
794.853029,-0.279545,0.005905
794.886399,-0.025000,0.038753
794.919769,0.000000,0.032141
794.953138,0.256818,0.068059
794.986508,-0.372727,0.096745
795.019877,-0.097727,0.069188
795.053245,-0.138636,0.021651
795.086614,-0.047727,0.068588
795.119982,0.093182,0.064313
795.153350,-0.070455,0.020423
795.186718,-0.143182,0.096337
795.220085,0.025000,0.038753
795.253452,0.256818,0.050654
795.286819,0.115909,0.019117
795.320185,-0.138636,0.067831
795.353551,0.159091,0.121861
795.386917,-0.093182,0.055705
795.420283,-0.211364,0.041082
795.453648,-0.022727,0.019682
795.487013,0.155303,0.018844
795.520378,0.036364,0.232575
795.553742,-0.068182,0.059047
795.587107,-0.022727,0.049533
795.620471,-0.403788,0.049832
795.653834,0.229545,0.049311
795.687197,0.368182,0.159464
795.720560,-0.118182,0.039886
795.753923,-0.070455,0.020423
795.787286,0.031061,0.037119
795.820648,-0.045455,0.022727
795.854010,-0.234091,0.052654
795.887371,0.343182,0.140482
795.920733,-0.072727,0.061322
795.954094,0.111364,0.130968
795.987454,0.295455,0.255871
796.020815,-0.045455,0.039365
796.054175,0.184091,0.054770
796.087535,0.022727,0.081153
796.120894,0.163636,0.050206
796.154254,-0.068182,0.067228
796.187613,0.025000,0.038753
796.220971,0.731818,0.270474
796.254330,2.513636,0.071401
796.287688,3.882576,0.500871
796.321046,5.125000,0.355511
796.354403,4.596970,0.384971
796.387761,1.229545,0.390028
796.421118,0.304545,0.069939
796.454474,-0.188636,0.037119
796.487831,0.020455,0.075404
796.521187,-0.068182,0.087286
796.554543,0.250000,0.121861
796.587898,-0.140909,0.051975
796.621254,-0.155303,0.074299
796.654609,-0.209091,0.018741
796.687963,-0.070455,0.020423
796.721318,-0.465909,0.033614
796.754672,-0.490909,0.063960
796.788026,0.277273,0.189647
796.821379,-0.248485,0.037483
796.854732,0.115909,0.037397
796.888085,-0.047727,0.075745
796.921438,-0.047727,0.068588
796.954790,-0.155303,0.049206
796.988142,0.000000,0.032141
797.021494,0.155303,0.018844
797.054846,-0.209091,0.037206
797.088197,-0.093182,0.055705
797.121548,0.090909,0.071870
797.154899,0.031061,0.018568
797.188249,-0.031061,0.080890
797.221599,0.279545,0.085242
797.254949,0.093182,0.064313
797.288298,-0.002273,0.033767
797.321648,0.031061,0.049101
797.354996,-0.325000,0.049624
797.388345,-0.093182,0.001968
797.421693,0.047727,0.040064
797.455041,0.086364,0.168902
797.488389,0.115909,0.037397
797.521737,-0.062121,0.037137
797.555084,0.000000,0.032141
797.588431,-0.347727,0.057350
797.621777,-0.138636,0.021651
797.655124,-0.186364,0.003936
797.688470,0.022727,0.074516
797.721815,-0.070455,0.038081
797.755161,-0.186364,0.055809
797.788506,0.124242,0.074273
797.821851,-0.062121,0.049114
797.855196,0.163636,0.050206
797.888540,0.381818,0.317597
797.921884,-0.140909,0.069048
797.955228,-0.052273,0.173930
797.988571,0.093182,0.032201
798.021914,0.186364,0.115954
798.055257,-0.534091,0.033614
798.088599,0.248485,0.112998
798.121942,0.227273,0.068182
798.155284,1.456818,0.352974
798.188625,4.006818,0.187231
798.221967,2.857576,0.502946
798.255308,3.097727,0.579107
798.288649,0.743182,0.185986
798.321989,0.177273,0.172533
798.355329,0.140909,0.159464
798.388669,-0.465909,0.056533
798.422009,0.065909,0.068588
798.455348,0.020455,0.060163
798.488687,-0.300000,0.072869
798.522026,0.022727,0.049533
798.555365,-0.122727,0.104323
798.588703,-0.115909,0.019117
798.622041,0.234091,0.123163
798.655378,0.062121,0.121692
798.688716,-0.075000,0.072469
798.722053,0.062121,0.037137
798.755389,0.045455,0.081944
798.788726,-0.022727,0.081153
798.822062,-0.165909,0.042927
798.855398,0.155303,0.066988
798.888733,0.002273,0.056625
798.922069,0.043182,0.146070
798.955404,-0.047727,0.051363
798.988738,0.181818,0.071870
799.022073,0.115909,0.049311
799.055407,0.095455,0.057631
799.088741,-0.072727,0.088840
799.122074,-0.186364,0.003936
799.155408,-0.022727,0.037689
799.188741,0.248485,0.098333
799.222073,-0.168182,0.074239
799.255406,-0.095455,0.035428
799.288738,-0.025000,0.038753
799.322069,-0.025000,0.038753
799.355401,-0.341667,0.049624
799.388732,-0.070455,0.067449
799.422063,0.320455,0.121346
799.455394,-0.095455,0.047835
799.488724,-0.093182,0.032201
799.522054,0.063636,0.143524
799.555384,-0.115909,0.049311
799.588713,-0.045455,0.022727
799.622042,-0.581818,0.019285
799.655371,-0.045455,0.050820
799.688700,-0.540909,0.081407
799.722028,0.025000,0.059732
799.755356,0.403788,0.188523
799.788684,0.047727,0.075745
799.822011,-0.347727,0.034970
799.855338,0.000000,0.032141
799.888665,0.115909,0.081017
799.921992,-0.302273,0.049101
799.955318,0.000000,0.000000
799.988644,-0.050000,0.095427
800.021969,0.000000,0.055670
800.055295,2.252273,0.468208
800.088620,4.377273,0.137627
800.121945,7.893182,0.191190
800.155269,6.491667,0.293760
800.188593,1.304545,0.402388
800.221917,0.155303,0.037258
800.255241,0.156818,0.076424
800.288564,0.163636,0.021320
800.321887,-0.140909,0.025206
800.355210,-0.217424,0.092897
800.388532,-0.045455,0.162305
800.421854,-0.310606,0.067228
800.455176,0.022727,0.037689
800.488498,-0.002273,0.107102
800.521819,0.511364,0.151929
800.555140,-0.563636,0.084060
800.588461,0.197727,0.338604
800.621781,0.197727,0.265012
800.655101,-0.468182,0.053155
800.688421,-0.259091,0.106285
800.721740,-0.002273,0.033767
800.755060,-0.163636,0.021320
800.788379,-0.020455,0.099085
800.821697,0.088636,0.057530
800.855015,-0.027273,0.095021
800.888334,-0.188636,0.049101
800.921651,-0.004545,0.134129
800.954969,0.131818,0.161396
800.988286,-0.095455,0.057631
801.021603,-0.403788,0.049832
801.054919,0.062121,0.080898
801.088235,0.000000,0.064282
801.121551,-0.234091,0.041706
801.154867,0.022727,0.067228
801.188183,-0.186364,0.055809
801.221498,-0.062121,0.037137
801.254812,0.211364,0.041082
801.288127,-0.124242,0.018741
801.321441,-0.093182,0.001968
801.354755,0.259091,0.111038
801.388069,0.134091,0.146423
801.421382,-1.070455,0.074715
801.454695,0.088636,0.097509
801.488008,0.020455,0.060163
801.521320,0.068182,0.037689
801.554632,0.463636,0.146092
801.587944,0.279545,0.085242
801.621256,0.248485,0.103453
801.654567,-0.217424,0.049311
801.687878,-0.031061,0.018568
801.721189,-0.031061,0.066910
801.754499,-0.068182,0.059047
801.787809,0.134091,0.105400
801.821119,0.022727,0.074516
801.854428,0.350000,0.183332
801.887737,-0.031061,0.080890
801.921046,0.528030,0.075060
801.954355,0.722727,0.422770
801.987663,2.718182,0.522094
802.020971,7.500000,1.216493
802.054279,7.112879,0.361047
802.087586,3.775000,0.821240
802.120894,0.770455,0.092897
802.154200,0.527273,0.109658
802.187507,0.093182,0.055705
802.220813,0.279545,0.032679
802.254119,0.186364,0.032381
802.287425,-0.102273,0.132887
802.320730,0.031061,0.018568
802.354035,-0.350000,0.051174
802.387340,0.070455,0.020423
802.420644,-0.155303,0.018844
802.453949,-0.155303,0.049206
802.487252,0.184091,0.095907
802.520556,-0.217424,0.049311
802.553859,0.124242,0.049167
802.587162,0.068182,0.059047
802.620465,-0.095455,0.035428
802.653767,-0.165909,0.077298
802.687069,0.022727,0.130063
802.720371,-0.093182,0.064313
802.753673,0.186364,0.032381
802.786974,0.259091,0.192673
802.820275,0.093182,0.032201
802.853576,0.072727,0.088840
802.886876,-0.045455,0.039365
802.920176,-0.138636,0.050347
802.953476,-0.306818,0.092842
802.986775,0.325000,0.161935
803.020074,0.248485,0.081057
803.053373,-0.002273,0.107102
803.086672,-0.022727,0.081153
803.119970,0.093182,0.001968
803.153268,-0.118182,0.039886
803.186565,-0.047727,0.051363
803.219863,-0.118182,0.088257
803.253160,-0.027273,0.062158
803.286457,-0.115909,0.037397
803.319753,-0.095455,0.057631
803.353049,-0.254545,0.066183
803.386345,-0.231818,0.103727
803.419641,0.031061,0.018568
803.452936,0.250000,0.133975
803.486231,-0.068182,0.037689
803.519525,0.043182,0.076424
803.552820,-0.190909,0.070857
803.586114,0.161364,0.086863
803.619408,-0.022727,0.113067
803.652701,0.025000,0.067831
803.685994,-0.050000,0.070528
803.719287,-0.209091,0.018741
803.752580,0.163636,0.021320
803.785872,0.275000,0.110426
803.819164,-0.068182,0.037689
803.852456,0.368182,0.131012
803.885747,0.768182,0.188554
803.919038,1.870455,0.150357
803.952329,7.063636,1.788317
803.985620,8.634848,0.671540
804.018910,3.323485,0.359499
804.052200,0.852273,0.295181
804.085489,0.000000,0.032141
804.118779,0.065909,0.051363
804.152068,-0.310606,0.049533
804.185357,0.000000,0.032141
804.218645,0.000000,0.064282
804.251933,0.025000,0.067831
804.285221,0.000000,0.032141
804.318508,-0.022727,0.113067
804.351796,0.388636,0.154324
804.385083,0.022727,0.037689
804.418369,-0.145455,0.082322
804.451656,0.070455,0.049832
804.484942,-0.170455,0.124871
804.518227,-0.234091,0.052654
804.551513,-0.002273,0.046619
804.584798,-0.215909,0.105841
804.618083,-0.248485,0.049376
804.651367,-0.025000,0.038753
804.684652,-0.022727,0.098412
804.717936,-0.403788,0.038081
804.751219,0.118182,0.060473
804.784503,-0.022727,0.019682
804.817786,-0.124242,0.080930
804.851068,0.093182,0.115904
804.884351,0.093182,0.064313
804.917633,0.047727,0.040064
804.950915,-0.022727,0.049533
804.984196,-0.002273,0.046619
805.017478,-0.093182,0.055705
805.050759,0.000000,0.064282
805.084039,-0.047727,0.023918
805.117320,-0.277273,0.053926
805.150600,0.025000,0.059732
805.183879,-0.279545,0.055982
805.217159,-0.186364,0.085129
805.250438,0.090909,0.032141
805.283717,0.000000,0.170075
805.316995,0.159091,0.193849
805.350274,-0.031061,0.018568
805.383552,0.050000,0.105700
805.416829,-0.068182,0.087286
805.450107,-0.031061,0.018568
805.483384,0.406818,0.259238
805.516660,-0.075000,0.091384
805.549937,-0.025000,0.087751
805.583213,0.043182,0.069337
805.616489,-0.052273,0.086744
805.649764,-0.031061,0.037119
805.683040,0.045455,0.081944
805.716315,-0.165909,0.156748
805.749589,-0.403788,0.081335
805.782864,0.477273,0.279046
805.816138,1.088636,0.303567
805.849411,5.097727,0.452648
805.882685,11.615909,0.181545
805.915958,13.534091,0.586164
805.949231,7.043182,0.451986
805.982504,1.072727,0.199793
806.015776,-0.031061,0.103322
806.049048,0.015909,0.145112
806.082319,-0.231818,0.049948
806.115591,-0.047727,0.122617
806.148862,-0.186364,0.032381
806.182133,-0.143182,0.045270
806.215403,-0.070455,0.049832
806.248673,0.115909,0.098300
806.281943,0.206818,0.234551
806.315213,-0.234091,0.052654
806.348482,-0.140909,0.082666
806.381751,-0.163636,0.074966
806.415019,-0.468182,0.062117
806.448288,-0.031061,0.049101
806.481556,0.115909,0.081017
806.514823,0.413636,0.143794
806.548091,0.070455,0.074715
806.581358,0.156818,0.118765
806.614625,-0.070455,0.049832
806.647891,-0.186364,0.085129
806.681158,0.161364,0.129779
806.714424,-0.068182,0.037689
806.747689,0.115909,0.067065
806.780955,0.068182,0.087286
806.814220,-0.004545,0.074793
806.847484,-0.115909,0.049311
806.880749,0.062121,0.018603
806.914013,-0.300000,0.072869
806.947277,-0.045455,0.039365
806.980540,-0.310606,0.049533
807.013803,0.000000,0.032141
807.047066,-0.124242,0.049167
807.080329,0.062121,0.074239
807.113591,0.090909,0.106600
807.146853,0.072727,0.104841
807.180115,-0.256818,0.068059
807.213376,0.000000,0.055670
807.246637,0.062121,0.112884
807.279898,-0.031061,0.018568
807.313159,0.000000,0.096424
807.346419,-0.047727,0.152641
807.379679,-0.418182,0.067113
807.412938,-0.341667,0.019911
807.446198,-0.093182,0.064313
807.479457,0.090909,0.115887
807.512715,0.115909,0.081017
807.545974,-0.206818,0.117012
807.579232,-0.095455,0.057631
807.612490,-0.070455,0.049832
807.645747,0.020455,0.075404
807.679004,-0.070455,0.038081
807.712261,-0.234091,0.052654
807.745518,0.502273,0.269016
807.778774,3.304545,0.358393
807.812030,10.467424,0.545127
807.845285,19.172727,1.363886
807.878541,11.034091,0.958781
807.911796,3.136364,0.516764
807.945051,0.496970,0.228271
807.978305,-0.352273,0.091440
808.011559,-0.309091,0.112080
808.044813,-0.118182,0.088257
808.078066,-0.029545,0.112420
808.111320,-0.022727,0.019682
808.144573,0.200000,0.291477
808.177825,0.062121,0.049114
808.211078,0.381818,0.272045
808.244330,-0.072727,0.152933
808.277581,0.068182,0.019682
808.310833,-0.022727,0.098412
808.344084,0.000000,0.032141
808.377335,0.020455,0.039414
808.410585,0.111364,0.130968
808.443835,-0.052273,0.107967
808.477085,0.020455,0.126555
808.510335,-0.463636,0.052421
808.543584,0.275000,0.131754
808.576833,-0.093182,0.064313
808.610082,0.131818,0.125371
808.643330,-0.652273,0.034970
808.676578,-0.000000,0.085038
808.709826,-0.209091,0.066959
808.743073,-0.403788,0.038081
808.776320,0.068182,0.117546
808.809567,-0.193182,0.109440
808.842814,0.045455,0.022727
808.876060,-0.068182,0.067228
808.909306,-0.138636,0.038753
808.942552,-0.031061,0.049101
808.975797,-0.093182,0.032201
809.009042,-0.093182,0.001968
809.042287,0.045455,0.093707
809.075531,0.043182,0.118765
809.108775,-0.347727,0.065742
809.142019,0.068182,0.067228
809.175262,0.002273,0.056625
809.208506,-0.022727,0.037689
809.241748,-0.186364,0.032381
809.274991,-0.045455,0.081944
809.308233,-0.163636,0.067726
809.341475,0.090909,0.115887
809.374717,-0.217424,0.081017
809.407958,0.155303,0.018844
809.441199,-0.341667,0.049624
809.474440,-0.496970,0.021320
809.507680,-0.140909,0.094339
809.540921,-0.062121,0.049114
809.574160,0.086364,0.162671
809.607400,-0.341667,0.019911
809.640639,0.227273,0.207055
809.673878,0.155303,0.151929
809.707117,0.331818,0.227579
809.740355,4.752273,0.649820
809.773593,6.118939,0.481586
809.806831,13.445455,1.428119
809.840068,6.336364,0.626828
809.873305,0.683333,0.304130
809.906542,0.320455,0.249491
809.939778,0.640909,0.330937
809.973015,-0.309091,0.173563
810.006250,0.156818,0.127166
810.039486,-0.163636,0.050206
810.072721,0.256818,0.177458
810.105956,0.365909,0.186596
810.139191,0.018182,0.084060
810.172425,0.065909,0.165625
810.205659,-0.052273,0.103071
810.238893,0.197727,0.181772
810.272126,-0.161364,0.036699
810.305359,-0.031818,0.136117
810.338592,-0.015909,0.236372
810.371825,0.652273,0.211214
810.405057,0.279545,0.170178
810.438289,0.031061,0.066910
810.471520,-0.095455,0.080128
810.504751,-0.211364,0.041082
810.537982,0.000000,0.085038
810.571213,-0.052273,0.125654
810.604443,-0.209091,0.049167
810.637673,-0.025000,0.087751
810.670903,-0.027273,0.069976
810.704133,0.093182,0.140114
810.737362,-0.310606,0.049533
810.770591,-0.279545,0.032679
810.803819,-0.038636,0.445691
810.837047,0.184091,0.044347
810.870275,-0.093182,0.096444
810.903503,0.000000,0.064282
810.936730,-0.443182,0.068888
810.969957,-0.022727,0.049533
811.003184,-0.097727,0.171989
811.036410,0.031061,0.018568
811.069636,0.388636,0.417902
811.102862,0.124242,0.103353
811.136087,-0.445455,0.080417
811.169312,-0.056818,0.160203
811.202537,-0.279545,0.085242
811.235762,-0.115909,0.098300
811.268986,0.000000,0.032141
811.302210,-0.559091,0.056909
811.335433,-0.238636,0.123832
811.368656,-0.027273,0.069976
811.401879,0.863636,0.183233
811.435102,-0.309091,0.273030
811.468324,-0.093182,0.306614
811.501546,0.538636,0.741156
811.534768,-0.534091,0.362347
811.567990,-0.093182,0.200731
811.601211,-0.277273,0.160110
811.634432,-0.341667,0.037809
811.667652,-0.159091,0.137777
811.700872,0.856818,0.282008
811.734092,3.447727,0.409260
811.767312,5.256818,0.681427
811.800531,4.284091,0.892516
811.833750,0.436364,0.095563
811.866969,-0.300000,0.072869
811.900187,0.000000,0.000000
811.933405,-0.496970,0.021320
811.966623,-0.231818,0.228214
811.999840,-0.352273,0.079342
812.033057,-0.254545,0.057854
812.066274,-0.329545,0.074299
812.099490,-0.211364,0.041082
812.132707,0.000000,0.115887
812.165923,-0.093182,0.064313
812.199138,0.062121,0.018603
812.232353,-0.186364,0.032381
812.265568,0.045455,0.050820
812.298783,-0.310606,0.037689
812.331997,-0.186364,0.055809
812.365211,0.022727,0.019682
812.398425,-0.022727,0.019682
812.431638,-0.217424,0.067065
812.464851,0.188636,0.117365
812.498064,-0.248485,0.049376
812.531277,-0.155303,0.018844
812.564489,0.031061,0.074230
812.597701,0.115909,0.188386
812.630912,-0.259091,0.055064
812.664123,-0.068182,0.117546
