#{
#    "background_file": "Backgrounds\\\\bg_785.995nm_13bin_219st_244en_10.0s_110g_4x_13_seq.txt",
#    "ccd_image_settings": [
#        1,
#        13,
#        1,
#        1600,
#        219,
#        244
#    ],
#    "ccd_temperature": "-87",
#    "cdRatios": {
#        "mean": 0.9381386126465732,
#        "std": 0.010888072272524401
#    },
#    "center_lambda": 786.0,
#    "comments": "",
#    "dark_region": 0.7927672302305888,
#    "date": "10/22/20 17:40:07PM",
#    "eff_field": 1.5,
#    "exposure": 10.0,
#    "fel_lambda": "15.0",
#    "fel_pol": "H",
#    "fel_pulses": 43,
#    "fel_pyro_cal": "0.012",
#    "fel_reprate": "1.07",
#    "fel_transmission": "1.0",
#    "fel_transmission_fits": {
#        "A": 1.0,
#        "C": 0.0,
#        "Mu": 0.0
#    },
#    "fieldInt": {
#        "mean": 5066.626445075757,
#        "std": 167.89158445998197
#    },
#    "fieldStrength": {
#        "mean": 32.654011363636364,
#        "std": 0.5485509533501538
#    },
#    "fpTime": {
#        "mean": 1.1322527158775024,
#        "std": 0.07207345968041323
#    },
#    "gain": 110,
#    "grating": 3,
#    "images_in_sequence": [
#        "hsg_820nm_c123_a90_HAna509.txt",
#        "hsg_820nm_c123_a90_HAna510.txt",
#        "hsg_820nm_c123_a90_HAna511.txt",
#        "hsg_820nm_c123_a90_HAna512.txt"
#    ],
#    "nir_lambda": "819.98",
#    "nir_pola": "90",
#    "nir_polg": "0",
#    "nir_power": "100.0",
#    "pulseEnergies": {
#        "mean": 1.5600852272727272,
#        "std": 0.059411651153832644
#    },
#    "pyroVoltage": {
#        "mean": 0.1386338906302951,
#        "std": 0.006299369461957851
#    },
#    "rotatorAngle": 270.0,
#    "sample_Temp": "55",
#    "sample_name": "L001218.C1",
#    "series": "820_Fan",
#    "slits": "60",
#    "spec_step": "",
#    "window_trans": 0.92,
#    "y_max": 2,
#    "y_min": 1
#}
#
#
#
#
#
#
#
#
#
#
#
#
#
#
#
#
#
#
#
#
#
#
#
#
#
#
Wavelength,Signal,error
nm,arb. u.,arb.u.
Wavelength,820_Fan,error
759.194366,0.043182,0.052359
759.228015,-0.006818,0.119977
759.261663,0.640909,0.324634
759.295311,0.031061,0.018568
759.328959,0.020455,0.039414
759.362607,0.184091,0.106133
759.396254,-0.211364,0.088804
759.429901,0.025000,0.067831
759.463548,0.279545,0.064553
759.497194,-0.234091,0.026577
759.530841,0.115909,0.074369
759.564487,0.231818,0.113249
759.598133,-0.093182,0.001968
759.631779,-0.077273,0.135356
759.665424,0.413636,0.276517
759.699069,0.065909,0.138445
759.732714,0.088636,0.107583
759.766359,-0.045455,0.022727
759.800003,0.113636,0.049533
759.833648,0.020455,0.050858
759.867292,-0.027273,0.123399
759.900935,-0.031061,0.049101
759.934579,0.070455,0.020423
759.968222,-0.115909,0.019117
760.001865,0.038636,0.126882
760.035508,0.070455,0.049832
760.069151,0.204545,0.126029
760.102793,0.365909,0.159751
760.136435,-0.093182,0.001968
760.170077,-0.124242,0.037206
760.203718,-0.124242,0.080930
760.237360,-0.420455,0.070738
760.271001,0.159091,0.130063
760.304642,-0.143182,0.078623
760.338283,-0.047727,0.152641
760.371923,-0.124242,0.066959
760.405563,0.431818,0.251801
760.439203,0.204545,0.180034
760.472843,0.543182,0.268343
760.506482,0.155303,0.080953
760.540122,0.409091,0.165457
760.573761,0.370455,0.083405
760.607399,0.111364,0.104663
760.641038,0.136364,0.075378
760.674676,0.090909,0.045455
760.708314,0.093182,0.032201
760.741952,0.113636,0.074516
760.775589,-0.002273,0.215858
760.809227,-0.155303,0.037258
760.842864,0.204545,0.152035
760.876501,-0.095455,0.073399
760.910137,0.155303,0.037258
760.943774,0.043182,0.069337
760.977410,-0.045455,0.039365
761.011046,-0.002273,0.085666
761.044681,0.025000,0.038753
761.078317,0.115909,0.019117
761.111952,-0.093182,0.032201
761.145587,-0.143182,0.136302
761.179221,0.570455,0.492562
761.212856,-0.486364,0.101309
761.246490,0.631818,0.183557
761.280124,0.018182,0.070711
761.313758,0.072727,0.076331
761.347391,0.113636,0.037689
761.381024,-0.211364,0.069188
761.414657,-0.163636,0.081565
761.448290,0.256818,0.050654
761.481923,0.297727,0.079732
761.515555,0.018182,0.070711
761.549187,-0.236364,0.057135
761.582819,-0.236364,0.079772
761.616450,-0.325000,0.098458
761.650082,-0.375000,0.051764
761.683713,0.022727,0.019682
761.717344,-0.327273,0.028020
761.750974,-0.350000,0.068446
761.784605,-0.403788,0.020423
761.818235,-0.075000,0.072469
761.851865,0.020455,0.126555
761.885494,-0.395455,0.103328
761.919124,0.070455,0.067449
761.952753,-0.045455,0.039365
761.986382,0.186364,0.055809
762.020010,0.018182,0.070711
762.053639,0.181818,0.140100
762.087267,0.093182,0.055705
762.120895,0.204545,0.103528
762.154523,-0.045455,0.039365
762.188150,-0.118182,0.088257
762.221777,-0.115909,0.019117
762.255404,0.002273,0.056625
762.289031,0.525000,0.270643
762.322658,0.068182,0.087286
762.356284,-0.097727,0.099761
762.389910,-0.120455,0.115591
762.423536,0.095455,0.073399
762.457161,-0.279545,0.032679
762.490786,-0.004545,0.098622
762.524411,-0.025000,0.038753
762.558036,0.031061,0.018568
762.591661,0.022727,0.019682
762.625285,-0.581818,0.049376
762.658909,-0.070455,0.049832
762.692533,-0.070455,0.020423
762.726157,0.181818,0.140100
762.759780,-0.072727,0.061322
762.793403,0.184091,0.106133
762.827026,0.115909,0.049311
762.860649,0.136364,0.050820
762.894271,-0.090909,0.071870
762.927893,-0.124242,0.037206
762.961515,0.181818,0.106600
762.995137,0.302273,0.049101
763.028758,0.347727,0.223107
763.062379,-0.070455,0.038081
763.096000,-0.031061,0.066910
763.129621,0.093182,0.055705
763.163241,0.000000,0.055670
763.196862,0.070455,0.067449
763.230481,0.227273,0.075378
763.264101,-0.022727,0.049533
763.297721,-0.004545,0.059396
763.331340,0.093182,0.096444
763.364959,0.000000,0.085038
763.398578,-0.043182,0.519808
763.432196,0.334091,0.290044
763.465814,0.145455,0.330227
763.499432,-0.050000,0.095427
763.533050,0.572727,0.250083
763.566668,-0.002273,0.046619
763.600285,-0.211364,0.041082
763.633902,0.186364,0.032381
763.667519,0.209091,0.092821
763.701135,0.031061,0.037119
763.734752,0.070455,0.093175
763.768368,0.140909,0.122874
763.801984,0.177273,0.197649
763.835599,-0.047727,0.023918
763.869215,0.163636,0.021320
763.902830,-0.002273,0.033767
763.936444,0.025000,0.087751
763.970059,0.047727,0.122617
764.003673,0.045455,0.050820
764.037288,0.411364,0.223037
764.070901,-0.029545,0.193472
764.104515,-0.279545,0.064553
764.138128,0.043182,0.052359
764.171742,-0.062121,0.037137
764.205354,0.093182,0.085060
764.238967,0.113636,0.059047
764.272580,0.015909,0.158713
764.306192,0.368182,0.138674
764.339804,0.327273,0.053397
764.373415,0.063636,0.197975
764.407027,0.124242,0.049167
764.440638,0.204545,0.232608
764.474249,0.322727,0.144510
764.507860,-0.372727,0.033091
764.541470,0.031061,0.049101
764.575080,0.384091,0.163585
764.608690,-0.002273,0.056625
764.642300,-0.465909,0.009841
764.675909,-0.118182,0.068484
764.709519,0.304545,0.069939
764.743128,0.045455,0.050820
764.776736,0.000000,0.064282
764.810345,0.018182,0.070711
764.843953,-0.161364,0.058421
764.877561,0.000000,0.032141
764.911169,0.113636,0.074516
764.944776,0.065909,0.094003
764.978384,-0.045455,0.050820
765.011991,0.090909,0.106600
765.045598,0.406818,0.210896
765.079204,0.227273,0.075378
765.112810,0.115909,0.133893
765.146416,-0.031061,0.049101
765.180022,0.095455,0.057631
765.213628,-0.093182,0.064313
765.247233,-0.093182,0.001968
765.280838,0.090909,0.055670
765.314443,-0.070455,0.049832
765.348048,-0.095455,0.073399
765.381652,-0.188636,0.058685
765.415256,0.068182,0.113067
765.448860,0.113636,0.037689
765.482463,-0.124242,0.018741
765.516067,0.320455,0.170844
765.549670,0.002273,0.072612
765.583273,0.020455,0.081968
765.616875,0.020455,0.088044
765.650478,-0.217424,0.019117
765.684080,0.136364,0.068182
765.717682,-0.025000,0.059732
765.751283,-0.188636,0.037119
765.784885,-0.050000,0.077506
765.818486,0.161364,0.058421
765.852087,-0.004545,0.117722
765.885687,-0.093182,0.055705
765.919288,0.043182,0.052359
765.952888,0.327273,0.146445
765.986488,0.045455,0.075378
766.020087,-0.279545,0.032679
766.053687,-0.093182,0.001968
766.087286,-0.070455,0.081335
766.120885,0.270455,0.214177
766.154484,0.025000,0.117892
766.188082,0.277273,0.150120
766.221680,0.002273,0.056625
766.255278,-0.093182,0.096444
766.288876,0.095455,0.057631
766.322473,0.325000,0.232627
766.356070,0.184091,0.030555
766.389667,0.115909,0.081017
766.423264,-0.350000,0.039821
766.456860,0.431818,0.400639
766.490457,0.211364,0.099761
766.524053,0.093182,0.064313
766.557648,-0.022727,0.037689
766.591244,0.124242,0.018741
766.624839,-0.254545,0.035791
766.658434,0.177273,0.150120
766.692029,0.138636,0.021651
766.725623,0.000000,0.064282
766.759217,-0.115909,0.067065
766.792811,-0.190909,0.063147
766.826405,-0.077273,0.139120
766.859999,0.163636,0.067726
766.893592,-0.050000,0.053926
766.927185,0.022727,0.019682
766.960777,-0.422727,0.060431
766.994370,0.295455,0.113067
767.027962,0.000000,0.055670
767.061554,-0.186364,0.064403
767.095146,0.113636,0.049533
767.128737,0.013636,0.238658
767.162329,0.063636,0.217850
767.195920,-0.145455,0.075788
767.229510,0.184091,0.084451
767.263101,-0.090909,0.101639
767.296691,0.045455,0.039365
767.330281,-0.352273,0.046508
767.363871,-0.054545,0.181705
767.397460,0.090909,0.071870
767.431050,0.093182,0.032201
767.464639,0.063636,0.078335
767.498227,0.186364,0.085129
767.531816,0.204545,0.081153
767.565404,-0.238636,0.163395
767.598992,-0.062121,0.049114
767.632580,0.138636,0.021651
767.666168,0.063636,0.101334
767.699755,0.115909,0.019117
767.733342,0.310606,0.019682
767.766929,0.217424,0.098300
767.800515,-0.062121,0.037137
767.834101,0.047727,0.023918
767.867687,0.031061,0.018568
767.901273,-0.031061,0.018568
767.934859,-0.443182,0.051764
767.968444,-0.186364,0.064403
768.002029,0.155303,0.098248
768.035614,0.031061,0.066910
768.069198,0.113636,0.209227
768.102783,-0.590152,0.068059
768.136367,-0.031061,0.018568
768.169950,-0.025000,0.038753
768.203534,0.068182,0.037689
768.237117,0.070455,0.049832
768.270700,0.124242,0.018741
768.304283,0.136364,0.050820
768.337866,0.015909,0.206765
768.371448,0.138636,0.067831
768.405030,-0.213636,0.072834
768.438612,-0.045455,0.050820
768.472193,0.279545,0.055982
768.505775,-0.090909,0.055670
768.539356,0.118182,0.099274
768.572936,0.155303,0.148490
768.606517,-0.395455,0.018603
768.640097,-0.062121,0.092793
768.673677,-0.143182,0.055519
768.707257,0.068182,0.037689
768.740836,0.124242,0.037206
768.774416,0.118182,0.039886
768.807995,0.115909,0.049311
768.841574,0.134091,0.123456
768.875152,0.320455,0.121346
768.908730,-0.115909,0.037397
768.942308,-0.093182,0.055705
768.975886,0.065909,0.094003
769.009464,0.090909,0.055670
769.043041,0.093182,0.032201
769.076618,0.365909,0.207563
769.110195,0.109091,0.136515
769.143771,0.131818,0.097569
769.177348,0.068182,0.067228
769.210924,-0.095455,0.080128
769.244499,0.352273,0.091440
769.278075,0.047727,0.051363
769.311650,0.155303,0.049206
769.345225,0.159091,0.067228
769.378800,0.252273,0.065899
769.412375,0.118182,0.039886
769.445949,0.111364,0.177807
769.479523,0.088636,0.086266
769.513097,-0.045455,0.039365
769.546670,0.068182,0.037689
769.580243,-0.188636,0.037119
769.613816,0.111364,0.082596
769.647389,-0.259091,0.078302
769.680962,0.181818,0.055670
769.714534,0.320455,0.249491
769.748106,0.155303,0.037258
769.781678,-0.093182,0.055705
769.815249,-0.138636,0.021651
769.848820,-0.350000,0.051174
769.882391,-0.025000,0.038753
769.915962,0.159091,0.059047
769.949533,-0.231818,0.038233
769.983103,0.136364,0.039365
770.016673,0.000000,0.085038
770.050243,0.043182,0.041333
770.083812,-0.211364,0.114243
770.117381,0.031061,0.037119
770.150950,0.018182,0.089995
770.184519,0.109091,0.160835
770.218088,-0.025000,0.021651
770.251656,-0.124242,0.018741
770.285224,-0.062121,0.049114
770.318791,-0.062121,0.037137
770.352359,0.093182,0.001968
770.385926,0.115909,0.067065
770.419493,0.186364,0.003936
770.453060,-0.279545,0.085242
770.486626,-0.093182,0.032201
770.520192,-0.070455,0.038081
770.553758,-0.025000,0.067831
770.587324,0.209091,0.037206
770.620890,0.018182,0.062984
770.654455,0.136364,0.039365
770.688020,0.506818,0.222179
770.721584,0.061364,0.134586
770.755149,-0.068182,0.087286
770.788713,0.047727,0.104416
770.822277,0.206818,0.125531
770.855841,-0.538636,0.050142
770.889404,-0.027273,0.069976
770.922967,-0.047727,0.051363
770.956530,0.161364,0.017714
770.990093,0.000000,0.032141
771.023655,-0.093182,0.032201
771.057217,0.020455,0.050858
771.090779,0.140909,0.051975
771.124341,-0.465909,0.033614
771.157902,0.020455,0.060163
771.191463,0.315909,0.208184
771.225024,-0.062121,0.037137
771.258585,-0.279545,0.055982
771.292145,0.184091,0.106133
771.325705,0.047727,0.023918
771.359265,-0.025000,0.087751
771.392825,0.156818,0.082908
771.426384,0.022727,0.074516
771.459943,-0.062121,0.049114
771.493502,-0.093182,0.032201
771.527061,0.068182,0.037689
771.560619,-0.372727,0.033091
771.594177,-0.004545,0.067535
771.627735,0.025000,0.087751
771.661293,0.186364,0.055809
771.694850,-0.310606,0.037689
771.728407,0.093182,0.085060
771.761964,0.184091,0.054770
771.795521,-0.004545,0.098622
771.829077,0.234091,0.052654
771.862633,0.088636,0.073320
771.896189,-0.115909,0.098300
771.929744,-0.031061,0.144934
771.963300,0.062121,0.037137
771.996855,-0.155303,0.037258
772.030409,0.065909,0.068588
772.063964,0.045455,0.039365
772.097518,-0.231818,0.067535
772.131072,-0.231818,0.038233
772.164626,0.186364,0.032381
772.198180,0.188636,0.074230
772.231733,0.020455,0.060163
772.265286,-0.161364,0.036699
772.298839,-0.163636,0.074966
772.332391,0.181818,0.238366
772.365943,0.304545,0.089391
772.399495,0.256818,0.081842
772.433047,-0.209091,0.018741
772.466598,0.020455,0.060163
772.500150,0.022727,0.049533
772.533701,0.124242,0.049167
772.567251,-0.217424,0.067065
772.600802,0.318182,0.223838
772.634352,0.155303,0.018844
772.667902,0.461364,0.295339
772.701452,0.011364,0.157766
772.735001,-0.143182,0.071753
772.768550,0.111364,0.061015
772.802099,-0.068182,0.059047
772.835648,0.086364,0.099664
772.869196,-0.002273,0.136756
772.902744,-0.025000,0.098824
772.936292,0.138636,0.050347
772.969840,0.281818,0.108806
773.003387,0.343182,0.116348
773.036934,0.217424,0.098300
773.070481,0.488636,0.133855
773.104028,-0.020455,0.088044
773.137574,-0.118182,0.039886
773.171120,-0.341667,0.019911
773.204666,0.047727,0.023918
773.238212,0.111364,0.104663
773.271757,0.061364,0.155922
773.305302,0.248485,0.037483
773.338847,0.045455,0.039365
773.372391,0.115909,0.037397
773.405936,-0.093182,0.167022
773.439480,0.250000,0.108402
773.473024,0.343182,0.269112
773.506567,0.488636,0.214032
773.540110,-0.062121,0.037137
773.573653,0.002273,0.056625
773.607196,0.231818,0.049948
773.640739,0.025000,0.067831
773.674281,-0.093182,0.032201
773.707823,0.000000,0.055670
773.741365,0.000000,0.055670
773.774906,0.217424,0.049311
773.808447,0.270455,0.214177
773.841988,-0.004545,0.074793
773.875529,-0.155303,0.049206
773.909070,-0.400000,0.088374
773.942610,-0.120455,0.071392
773.976150,-0.047727,0.023918
774.009689,-0.093182,0.032201
774.043229,-0.341667,0.049624
774.076768,0.124242,0.129924
774.110307,-0.072727,0.099793
774.143845,-0.095455,0.035428
774.177384,-0.022727,0.049533
774.210922,0.000000,0.032141
774.244460,0.225000,0.119632
774.277997,0.136364,0.118094
774.311535,0.022727,0.049533
774.345072,-0.022727,0.019682
774.378609,-0.188636,0.058685
774.412145,-0.027273,0.062158
774.445682,-0.115909,0.037397
774.479218,-0.004545,0.074793
774.512754,0.327273,0.159933
774.546289,-0.090909,0.096424
774.579824,-0.329545,0.058773
774.613359,0.043182,0.069337
774.646894,0.113636,0.098412
774.680429,-0.045455,0.039365
774.713963,0.090909,0.032141
774.747497,0.070455,0.038081
774.781031,0.577273,0.314155
774.814564,0.259091,0.217838
774.848097,-0.140909,0.051975
774.881630,0.234091,0.026577
774.915163,-0.002273,0.033767
774.948696,0.045455,0.022727
774.982228,0.341667,0.081208
775.015760,-0.050000,0.053926
775.049291,-0.025000,0.059732
775.082823,0.165909,0.169417
775.116354,0.179545,0.103172
775.149885,0.093182,0.001968
775.183416,-0.068182,0.141476
775.216946,-0.329545,0.098248
775.250476,0.118182,0.039886
775.284006,0.020455,0.060163
775.317535,-0.281818,0.038836
775.351065,0.000000,0.055670
775.384594,-0.113636,0.117546
775.418123,0.204545,0.152035
775.451651,-0.165909,0.053626
775.485180,-0.327273,0.053397
775.518708,0.177273,0.150120
775.552235,0.093182,0.085060
775.585763,-0.170455,0.096925
775.619290,0.375000,0.126922
775.652817,0.186364,0.085129
775.686344,0.248485,0.098333
775.719870,0.186364,0.111410
775.753397,0.000000,0.032141
775.786923,-0.006818,0.119977
775.820448,-0.186364,0.055809
775.853974,0.186364,0.055809
775.887499,0.115909,0.019117
775.921024,-0.022727,0.037689
775.954549,-0.231818,0.049948
775.988073,0.204545,0.130063
776.021597,0.227273,0.228406
776.055121,-0.093182,0.001968
776.088645,-0.062121,0.018603
776.122168,-0.302273,0.037119
776.155691,0.093182,0.001968
776.189214,-0.124242,0.018741
776.222737,0.138636,0.038753
776.256259,0.086364,0.239695
776.289781,0.000000,0.032141
776.323303,0.093182,0.032201
776.356824,0.022727,0.049533
776.390346,0.043182,0.041333
776.423867,0.136364,0.039365
776.457387,-0.329545,0.058773
776.490908,0.217424,0.049311
776.524428,0.000000,0.032141
776.557948,-0.217424,0.049311
776.591468,0.088636,0.092059
776.624987,0.025000,0.059732
776.658506,0.020455,0.039414
776.692025,-0.236364,0.097277
776.725544,-0.217424,0.049311
776.759062,0.275000,0.212725
776.792581,0.022727,0.019682
776.826099,0.217424,0.019117
776.859616,0.277273,0.029016
776.893134,0.163636,0.038569
776.926651,0.093182,0.085060
776.960167,-0.002273,0.085666
776.993684,0.070455,0.067449
777.027200,0.181818,0.064282
777.060716,0.090909,0.045455
777.094232,0.140909,0.051975
777.127748,0.068182,0.117546
777.161263,0.175000,0.223916
777.194778,0.217424,0.133893
777.228293,0.254545,0.086483
777.261807,0.134091,0.095095
777.295322,0.068182,0.037689
777.328836,-0.261364,0.076018
777.362349,0.045455,0.099066
777.395863,-0.062121,0.018603
777.429376,-0.124242,0.018741
777.462889,-0.093182,0.055705
777.496401,0.068182,0.037689
777.529914,0.109091,0.091136
777.563426,-0.045455,0.022727
777.596938,0.347727,0.013778
777.630449,0.275000,0.139375
777.663961,0.062121,0.049114
777.697472,0.138636,0.021651
777.730983,-0.093182,0.064313
777.764493,-0.031061,0.151895
777.798004,0.322727,0.121181
777.831514,-0.155303,0.049206
777.865023,0.156818,0.149565
777.898533,0.115909,0.049311
777.932042,0.000000,0.032141
777.965551,0.186364,0.032381
777.999060,-0.248485,0.037483
778.032568,0.068182,0.037689
778.066076,0.231818,0.049948
778.099584,-0.045455,0.022727
778.133092,0.000000,0.000000
778.166599,0.124242,0.018741
778.200107,0.047727,0.023918
778.233613,0.297727,0.140666
778.267120,-0.118182,0.039886
778.300626,0.231818,0.067535
778.334132,-0.124242,0.018741
778.367638,0.161364,0.058421
778.401144,-0.027273,0.053203
778.434649,-0.070455,0.020423
778.468154,0.211364,0.088804
778.501659,-0.140909,0.025206
778.535163,0.118182,0.039886
778.568668,0.217424,0.049311
778.602172,-0.093182,0.032201
778.635675,-0.236364,0.125145
778.669179,0.217424,0.049311
778.702682,0.118182,0.039886
778.736185,0.136364,0.093707
778.769688,0.109091,0.101843
778.803190,-0.002273,0.107102
778.836692,-0.075000,0.072469
778.870194,0.090909,0.032141
778.903696,0.000000,0.064282
778.937197,0.595455,0.307642
778.970698,0.229545,0.049311
779.004199,0.047727,0.068588
779.037699,0.000000,0.000000
779.071200,0.434091,0.195517
779.104700,0.254545,0.086483
779.138199,0.093182,0.064313
779.171699,-0.045455,0.039365
779.205198,0.043182,0.041333
779.238697,0.320455,0.129580
779.272196,0.113636,0.098412
779.305694,-0.188636,0.037119
779.339192,0.206818,0.179686
779.372690,0.159091,0.152035
779.406188,0.036364,0.130003
779.439685,-0.188636,0.049101
779.473182,-0.248485,0.019285
779.506679,0.163636,0.021320
779.540176,0.043182,0.069337
779.573672,-0.150000,0.282651
779.607168,0.345455,0.085280
779.640664,0.279545,0.005905
779.674160,0.002273,0.085666
779.707655,-0.143182,0.071753
779.741150,0.000000,0.032141
779.774644,0.156818,0.082908
779.808139,0.206818,0.035989
779.841633,0.252273,0.112282
779.875127,0.040909,0.085129
779.908621,-0.062121,0.018603
779.942114,-0.350000,0.039821
779.975607,0.138636,0.050347
780.009100,-0.259091,0.044710
780.042593,0.159091,0.059047
780.076085,-0.140909,0.025206
780.109577,-0.068182,0.037689
780.143069,0.047727,0.075745
780.176560,-0.027273,0.053203
780.210052,-0.070455,0.081335
780.243543,-0.045455,0.050820
780.277033,-0.093182,0.085060
780.310524,-0.325000,0.037809
780.344014,0.031061,0.018568
780.377504,0.047727,0.023918
780.410994,-0.118182,0.039886
780.444483,0.095455,0.073399
780.477972,0.140909,0.025206
780.511461,0.179545,0.086863
780.544950,-0.025000,0.021651
780.578438,0.138636,0.050347
780.611926,0.070455,0.049832
780.645414,0.115909,0.081017
780.678902,0.209091,0.098228
780.712389,0.363636,0.190150
780.745876,0.279545,0.032679
780.779363,0.254545,0.086483
780.812849,-0.062121,0.049114
780.846335,-0.165909,0.053626
780.879821,0.000000,0.064282
780.913307,0.068182,0.087286
780.946792,0.217424,0.037397
780.980277,0.093182,0.032201
781.013762,-0.261364,0.088571
781.047247,0.550000,0.368175
781.080731,0.124242,0.037206
781.114215,0.043182,0.052359
781.147699,0.204545,0.103528
781.181183,-0.031061,0.018568
781.214666,-0.115909,0.019117
781.248149,-0.006818,0.090532
781.281632,0.022727,0.037689
781.315114,0.231818,0.152171
781.348596,0.184091,0.101149
781.382078,0.459091,0.234906
781.415560,0.275000,0.115009
781.449041,0.338636,0.184228
781.482522,0.063636,0.150550
781.516003,0.293182,0.283506
781.549484,0.070455,0.074715
781.582964,0.156818,0.082908
781.616444,0.161364,0.017714
781.649924,0.204545,0.103528
781.683404,-0.143182,0.055519
781.716883,-0.068182,0.059047
781.750362,-0.031061,0.037119
781.783841,0.043182,0.052359
781.817319,-0.093182,0.055705
781.850797,0.031061,0.018568
781.884275,0.068182,0.037689
781.917753,0.202273,0.094823
781.951230,-0.002273,0.056625
781.984707,0.020455,0.081968
782.018184,-0.004545,0.059396
782.051661,-0.070455,0.020423
782.085137,-0.068182,0.059047
782.118613,0.093182,0.001968
782.152089,0.415909,0.144041
782.185564,0.115909,0.019117
782.219040,-0.025000,0.038753
782.252515,0.115909,0.037397
782.285989,0.250000,0.141476
782.319464,0.040909,0.085129
782.352938,0.136364,0.039365
782.386412,-0.045455,0.068182
782.419885,-0.045455,0.104149
782.453359,0.177273,0.316252
782.486832,0.161364,0.066679
782.520305,-0.027273,0.062158
782.553777,-0.161364,0.036699
782.587249,-0.418182,0.049376
782.620721,-0.702273,0.112051
782.654193,0.093182,0.064313
782.687665,0.093182,0.032201
782.721136,0.000000,0.032141
782.754607,0.043182,0.094551
782.788077,-0.027273,0.110128
782.821548,0.550000,0.340477
782.855018,-0.138636,0.038753
782.888488,0.072727,0.076331
782.921957,0.155303,0.037258
782.955427,-0.155303,0.018844
782.988896,-0.093182,0.001968
783.022365,0.090909,0.032141
783.055833,0.045455,0.039365
783.089301,-0.124242,0.018741
783.122769,-0.310606,0.049533
783.156237,0.320455,0.102921
783.189704,0.029545,0.198740
783.223172,0.486364,0.044710
783.256638,-0.310606,0.037689
783.290105,-0.093182,0.064313
783.323571,0.272727,0.150756
783.357037,0.093182,0.032201
783.390503,-0.093182,0.055705
783.423969,-0.075000,0.085545
783.457434,0.440909,0.085854
783.490899,0.061364,0.118242
783.524364,-0.047727,0.040064
783.557828,0.115909,0.037397
783.591292,0.252273,0.047714
783.624756,0.118182,0.088257
783.658220,0.022727,0.067228
783.691683,-0.100000,0.102952
783.725146,-0.186364,0.055809
783.758609,0.272727,0.140100
783.792072,0.429545,0.350551
783.825534,0.113636,0.059047
783.858996,-0.004545,0.074793
783.892458,0.113636,0.098412
783.925919,-0.190909,0.090110
783.959381,0.088636,0.158126
783.992842,-0.211364,0.041082
784.026302,0.254545,0.035791
784.059763,-0.186364,0.055809
784.093223,-0.031061,0.037119
784.126683,0.325000,0.019911
784.160142,-0.047727,0.068588
784.193601,-0.070455,0.020423
784.227060,0.138636,0.050347
784.260519,0.211364,0.061269
784.293978,-0.115909,0.019117
784.327436,0.181818,0.064282
784.360894,0.217424,0.037397
784.394352,0.068182,0.087286
784.427809,-0.231818,0.049948
784.461266,0.025000,0.038753
784.494723,0.072727,0.088840
784.528180,-0.093182,0.032201
784.561636,0.000000,0.064282
784.595092,0.231818,0.148738
784.628548,0.063636,0.101334
784.662003,0.209091,0.049167
784.695458,0.118182,0.060473
784.728913,0.115909,0.037397
784.762368,0.186364,0.032381
784.795823,0.063636,0.078335
784.829277,0.093182,0.055705
784.862731,0.109091,0.101843
784.896184,0.159091,0.141476
784.929637,-0.140909,0.025206
784.963091,0.256818,0.022355
784.996543,0.652273,0.140776
785.029996,0.775000,0.302800
785.063448,0.520455,0.276590
785.096900,0.575000,0.108682
785.130352,0.559091,0.116487
785.163803,0.518182,0.272614
785.197254,0.070455,0.020423
785.230705,-0.124242,0.066959
785.264156,-0.062121,0.066920
785.297606,-0.070455,0.098563
785.331056,0.088636,0.086266
785.364506,0.156818,0.104909
785.397955,-0.062121,0.080898
785.431405,0.045455,0.050820
785.464854,-0.472727,0.109658
785.498302,-0.070455,0.049832
785.531751,0.000000,0.055670
785.565199,-0.004545,0.067535
785.598647,-0.331818,0.091673
785.632094,-0.100000,0.121373
785.665542,0.002273,0.056625
785.698989,-0.118182,0.039886
785.732436,-0.022727,0.049533
785.765882,0.320455,0.310381
785.799328,0.231818,0.067535
785.832774,0.156818,0.082908
785.866220,0.206818,0.048252
785.899665,-0.090909,0.055670
785.933111,-0.140909,0.051975
785.966555,-0.256818,0.104069
786.000000,0.090909,0.045455
786.033444,0.340909,0.322014
786.066888,0.209091,0.133840
786.100332,0.115909,0.049311
786.133776,0.163636,0.050206
786.167219,0.270455,0.289991
786.200662,0.070455,0.049832
786.234104,0.093182,0.032201
786.267547,-0.124242,0.037206
786.300989,0.093182,0.032201
786.334431,0.186364,0.085129
786.367872,0.093182,0.001968
786.401314,0.111364,0.082596
786.434755,0.062121,0.066920
786.468196,0.118182,0.039886
786.501636,0.000000,0.000000
786.535076,0.065909,0.113880
786.568516,0.093182,0.032201
786.601956,0.047727,0.068588
786.635395,0.115909,0.067065
786.668834,0.047727,0.051363
786.702273,-0.124242,0.121713
786.735712,0.113636,0.059047
786.769150,-0.143182,0.055519
786.802588,-0.168182,0.133821
786.836026,-0.056818,0.153619
786.869463,0.372727,0.064763
786.902900,0.931818,0.037689
786.936337,0.496970,0.134226
786.969774,0.652273,0.147933
787.003210,0.384091,0.297899
787.036646,0.363636,0.195507
787.070082,-0.075000,0.091384
787.103518,-0.188636,0.058685
787.136953,-0.248485,0.049376
787.170388,0.025000,0.067831
787.203823,0.181818,0.071870
787.237257,0.361364,0.320614
787.270691,-0.027273,0.095021
787.304125,0.186364,0.003936
787.337559,0.231818,0.098622
787.370992,-0.234091,0.052654
787.404425,0.093182,0.085060
787.437858,-0.093182,0.085060
787.471290,-0.372727,0.033091
787.504723,-0.140909,0.069048
787.538155,-0.031061,0.049101
787.571586,0.136364,0.075378
787.605018,-0.002273,0.046619
787.638449,-0.031061,0.049101
787.671880,0.217424,0.129978
787.705310,0.350000,0.068446
787.738741,-0.047727,0.040064
787.772171,-0.031061,0.037119
787.805600,-0.231818,0.067535
787.839030,-0.045455,0.022727
787.872459,0.045455,0.022727
787.905888,0.340909,0.193849
787.939317,0.395455,0.129904
787.972745,0.070455,0.121983
788.006173,0.256818,0.050654
788.039601,0.297727,0.151282
788.073028,0.040909,0.124545
788.106456,0.118182,0.039886
788.139883,-0.090909,0.071870
788.173309,0.161364,0.058421
788.206736,-0.095455,0.035428
788.240162,0.231818,0.020706
788.273588,0.156818,0.099864
788.307013,0.206818,0.073671
788.340439,0.040909,0.071978
788.373864,-0.054545,0.111155
788.407288,0.156818,0.082908
788.440713,0.138636,0.021651
788.474137,0.118182,0.039886
788.507561,0.456818,0.114107
788.540985,-0.045455,0.068182
788.574408,0.040909,0.071978
788.607831,0.181818,0.064282
788.641254,0.325000,0.148629
788.674677,0.022727,0.019682
788.708099,-0.493182,0.070299
788.741521,0.590909,0.245833
788.774943,1.388636,0.195649
788.808364,1.468182,0.513993
788.841785,0.829545,0.234198
788.875206,0.652273,0.179484
788.908627,0.272727,0.238366
788.942047,0.065909,0.094003
788.975467,0.113636,0.155395
789.008887,-0.045455,0.099066
789.042306,-0.188636,0.087041
789.075726,0.111364,0.126963
789.109145,-0.027273,0.062158
789.142563,0.181818,0.064282
789.175982,-0.327273,0.042640
789.209400,0.022727,0.019682
789.242817,0.061364,0.134586
789.276235,0.115909,0.019117
789.309652,0.277273,0.053926
789.343069,-0.217424,0.019117
789.376486,0.320455,0.121346
789.409902,0.248485,0.151984
789.443319,0.390909,0.150550
789.476735,0.000000,0.085038
789.510150,0.047727,0.068588
789.543565,0.090909,0.071870
789.576980,-0.155303,0.037258
789.610395,0.134091,0.083529
789.643810,0.138636,0.050347
789.677224,-0.165909,0.127693
789.710638,-0.124242,0.037206
789.744052,0.040909,0.078828
789.777465,-0.002273,0.161039
789.810878,0.062121,0.049114
789.844291,0.138636,0.103920
789.877703,0.236364,0.125145
789.911116,0.093182,0.001968
789.944528,0.115909,0.019117
789.977939,0.234091,0.041706
790.011351,-0.143182,0.071753
790.044762,0.124242,0.049167
790.078173,0.031061,0.018568
790.111583,0.156818,0.109722
790.144994,0.729545,0.397959
790.178404,0.000000,0.032141
790.211813,-0.675000,0.130098
790.245223,-0.115909,0.067065
790.278632,0.045455,0.022727
790.312041,-0.050000,0.053926
790.345450,-0.095455,0.057631
790.378858,0.018182,0.070711
790.412266,0.093182,0.032201
790.445674,0.310606,0.188445
790.479081,-0.045455,0.039365
790.512488,0.000000,0.000000
790.545895,-0.002273,0.072612
790.579302,0.572727,0.333309
790.612708,0.631818,0.262330
790.646115,1.238636,0.308026
790.679520,1.832576,0.135542
790.712926,0.561364,0.110800
790.746331,0.186364,0.064403
790.779736,-0.118182,0.060473
790.813141,-0.062121,0.018603
790.846545,0.115909,0.129978
790.879949,-0.025000,0.067831
790.913353,-0.062121,0.037137
790.946757,-0.093182,0.085060
790.980160,0.115909,0.049311
791.013563,0.062121,0.018603
791.046966,0.025000,0.067831
791.080368,0.062121,0.037137
791.113771,0.156818,0.082908
791.147173,0.363636,0.222681
791.180574,0.109091,0.136515
791.213976,0.093182,0.064313
791.247377,0.111364,0.152810
791.280777,0.161364,0.036699
791.314178,-0.072727,0.061322
791.347578,0.045455,0.050820
791.380978,0.229545,0.074369
791.414378,0.063636,0.106309
791.447777,-0.006818,0.187231
791.481176,0.138636,0.067831
791.514575,0.090909,0.032141
791.547973,0.315909,0.227168
791.581372,0.047727,0.051363
791.614770,0.115909,0.037397
791.648167,0.018182,0.070711
791.681565,0.177273,0.215166
791.714962,0.124242,0.018741
791.748359,0.111364,0.088629
791.781755,0.043182,0.052359
791.815152,0.062121,0.037137
791.848548,0.270455,0.148699
791.881943,-0.002273,0.072612
791.915339,-0.072727,0.061322
791.948734,0.118182,0.039886
791.982129,0.000000,0.032141
792.015523,0.062121,0.018603
792.048918,-0.062121,0.049114
792.082312,-0.118182,0.039886
792.115705,0.084091,0.121261
792.149099,0.070455,0.020423
792.182492,0.113636,0.049533
792.215885,-0.304545,0.027555
792.249278,-0.025000,0.067831
792.282670,0.161364,0.017714
792.316062,0.136364,0.050820
792.349454,0.043182,0.069337
792.382845,-0.097727,0.088804
792.416236,-0.029545,0.086446
792.449627,0.211364,0.069188
792.483018,0.745455,0.225539
792.516408,0.621212,0.104149
792.549798,1.149242,0.187148
792.583188,0.838636,0.036699
792.616578,0.411364,0.157963
792.649967,0.440909,0.116487
792.683356,0.231818,0.049948
792.716745,0.279545,0.128700
792.750133,0.113636,0.074516
792.783521,0.068182,0.037689
792.816909,0.115909,0.019117
792.850296,0.136364,0.050820
792.883684,0.031061,0.049101
792.917071,0.031061,0.018568
792.950457,0.497727,0.365272
792.983844,-0.302273,0.049101
793.017230,0.022727,0.019682
793.050616,0.070455,0.067449
793.084001,0.020455,0.152472
793.117386,0.043182,0.052359
793.150771,0.184091,0.054770
793.184156,0.063636,0.101334
793.217541,0.090909,0.055670
793.250925,-0.022727,0.049533
793.284309,0.413636,0.227307
793.317692,-0.031061,0.037119
793.351075,0.045455,0.050820
793.384458,0.045455,0.050820
793.417841,0.068182,0.141476
793.451223,0.252273,0.137133
793.484606,0.134091,0.100380
793.517988,-0.027273,0.053203
793.551369,0.090909,0.085038
793.584750,0.155303,0.049206
793.618131,-0.155303,0.066988
793.651512,-0.186364,0.055809
793.684893,-0.062121,0.018603
793.718273,0.209091,0.066959
793.751653,-0.062121,0.037137
793.785032,-0.031061,0.018568
793.818411,0.111364,0.104663
793.851790,-0.188636,0.037119
793.885169,-0.006818,0.101302
793.918548,-0.022727,0.019682
793.951926,0.250000,0.168166
793.985304,0.047727,0.082282
794.018681,0.045455,0.022727
794.052059,-0.070455,0.038081
794.085436,-0.047727,0.068588
794.118812,0.115909,0.019117
794.152189,0.045455,0.050820
794.185565,0.134091,0.100380
794.218941,0.020455,0.050858
794.252317,0.181818,0.115887
794.285692,-0.279545,0.005905
794.319067,0.093182,0.032201
794.352442,0.775000,0.345804
794.385816,1.553030,0.376718
794.419190,3.340909,0.196496
794.452564,3.156818,0.270166
794.485938,0.590909,0.250000
794.519311,0.093182,0.170087
794.552684,0.206818,0.048252
794.586057,-0.093182,0.032201
794.619429,0.070455,0.098563
794.652802,0.022727,0.049533
794.686173,0.068182,0.037689
794.719545,0.310606,0.019682
794.752916,-0.025000,0.130375
794.786287,0.356818,0.450131
794.819658,-0.286364,0.090539
794.853029,0.002273,0.056625
794.886399,0.045455,0.081944
794.919769,0.293182,0.210283
794.953138,0.272727,0.115887
794.986508,-0.445455,0.066339
795.019877,-0.045455,0.050820
795.053245,-0.155303,0.018844
795.086614,0.045455,0.050820
795.119982,0.204545,0.059047
795.153350,-0.025000,0.038753
795.186718,0.181818,0.064282
795.220085,-0.095455,0.097569
795.253452,0.234091,0.083095
795.286819,-0.093182,0.055705
795.320185,0.070455,0.020423
795.353551,-0.100000,0.092375
795.386917,0.088636,0.065899
795.420283,-0.118182,0.039886
795.453648,-0.072727,0.041161
795.487013,0.062121,0.018603
795.520378,0.047727,0.023918
795.553742,0.062121,0.121692
795.587107,0.222727,0.148738
795.620471,-0.231818,0.049948
795.653834,0.229545,0.049311
795.687197,0.295455,0.158685
795.720560,-0.002273,0.033767
795.753923,0.072727,0.076331
795.787286,0.093182,0.032201
795.820648,0.302273,0.133816
795.854010,-0.140909,0.051975
795.887371,0.088636,0.065899
795.920733,-0.029545,0.125449
795.954094,0.020455,0.039414
795.987454,-0.070455,0.049832
796.020815,0.186364,0.085129
796.054175,0.234091,0.026577
796.087535,0.113636,0.081153
796.120894,0.163636,0.050206
796.154254,0.000000,0.032141
796.187613,0.209091,0.158571
796.220971,0.479545,0.163743
796.254330,1.395455,0.161779
796.287688,3.002273,0.535905
796.321046,5.634091,0.795652
796.354403,3.550000,0.908531
796.387761,0.962879,0.153249
796.421118,0.209091,0.249669
796.454474,0.070455,0.020423
796.487831,0.202273,0.180975
796.521187,0.202273,0.207563
796.554543,0.086364,0.088695
796.587898,-0.002273,0.056625
796.621254,0.186364,0.055809
796.654609,-0.161364,0.036699
796.687963,-0.118182,0.039886
796.721318,-0.356818,0.105792
796.754672,-0.561364,0.044114
796.788026,0.047727,0.023918
796.821379,-0.118182,0.088257
796.854732,0.245455,0.144957
796.888085,-0.095455,0.107637
796.921438,-0.068182,0.059047
796.954790,0.047727,0.051363
796.988142,0.325000,0.067295
797.021494,0.345455,0.064603
797.054846,-0.184091,0.054770
797.088197,0.022727,0.019682
797.121548,0.293182,0.189616
797.154899,0.000000,0.055670
797.188249,-0.050000,0.077506
797.221599,0.090909,0.045455
797.254949,-0.031061,0.049101
797.288298,0.231818,0.049948
797.321648,0.436364,0.150206
797.354996,-0.279545,0.085242
797.388345,0.062121,0.018603
797.421693,0.181818,0.064282
797.455041,-0.145455,0.075788
797.488389,0.047727,0.082282
797.521737,0.022727,0.049533
797.555084,-0.161364,0.036699
797.588431,-0.304545,0.069939
797.621777,-0.115909,0.019117
797.655124,-0.125000,0.121729
797.688470,0.062121,0.018603
797.721815,0.161364,0.066679
797.755161,-0.143182,0.071753
797.788506,0.209091,0.080930
797.821851,0.252273,0.102670
797.855196,0.229545,0.049311
797.888540,0.124242,0.049167
797.921884,0.043182,0.094551
797.955228,-0.009091,0.217185
797.988571,0.181818,0.055670
798.021914,0.031061,0.037119
798.055257,-0.329545,0.098248
798.088599,0.411364,0.173544
798.121942,0.513636,0.071401
798.155284,1.322727,0.569557
798.188625,3.230303,0.296048
798.221967,5.329545,0.566218
798.255308,2.943182,0.530421
798.288649,0.538636,0.137997
798.321989,0.456818,0.204807
798.355329,0.031061,0.018568
798.388669,-0.397727,0.043643
798.422009,0.088636,0.057530
798.455348,0.204545,0.171210
798.488687,-0.184091,0.054770
798.522026,0.209091,0.037206
798.555365,0.000000,0.032141
798.588703,-0.072727,0.041161
798.622041,0.138636,0.038753
798.655378,0.184091,0.084451
798.688716,0.365909,0.194723
798.722053,0.281818,0.059786
798.755389,0.088636,0.073320
798.788726,-0.093182,0.055705
798.822062,-0.050000,0.070528
798.855398,-0.025000,0.087751
798.888733,0.018182,0.070711
798.922069,0.020455,0.039414
798.955404,-0.031061,0.018568
798.988738,0.411364,0.157963
799.022073,0.070455,0.049832
799.055407,0.159091,0.059047
799.088741,0.045455,0.050820
799.122074,0.068182,0.037689
799.155408,-0.095455,0.047835
799.188741,0.300000,0.072869
799.222073,-0.062121,0.018603
799.255406,-0.050000,0.043301
799.288738,0.184091,0.071175
799.322069,0.279545,0.096604
799.355401,-0.420455,0.029524
799.388732,0.000000,0.096424
799.422063,0.186364,0.032381
799.455394,-0.025000,0.021651
799.488724,0.200000,0.167751
799.522054,-0.217424,0.037397
799.555384,0.031061,0.080890
799.588713,-0.027273,0.069976
799.622042,-0.377273,0.066920
799.655371,0.234091,0.069560
799.688700,-0.370455,0.053142
799.722028,0.188636,0.074230
799.755356,0.045455,0.050820
799.788684,0.000000,0.032141
799.822011,-0.215909,0.084083
799.855338,0.143182,0.106522
799.888665,-0.022727,0.049533
799.921992,-0.140909,0.025206
799.955318,0.111364,0.068963
799.988644,0.295455,0.201685
800.021969,0.425000,0.211824
800.055295,1.718182,0.468931
800.088620,6.727273,0.835053
800.121945,8.156818,1.050361
800.155269,5.466667,0.525428
800.188593,1.242424,0.274615
800.221917,0.277273,0.105700
800.255241,0.109091,0.181932
800.288564,0.217424,0.019117
800.321887,0.025000,0.038753
800.355210,-0.115909,0.037397
800.388532,0.065909,0.051363
800.421854,-0.145455,0.134687
800.455176,-0.209091,0.092821
800.488498,0.111364,0.082596
800.521819,0.406818,0.150940
800.555140,-0.697727,0.037119
800.588461,-0.068182,0.059047
800.621781,0.111364,0.204807
800.655101,-0.217424,0.037397
800.688421,-0.375000,0.040576
800.721740,0.134091,0.077097
800.755060,0.136364,0.093707
800.788379,-0.140909,0.040846
800.821697,0.043182,0.069337
800.855015,0.002273,0.056625
800.888334,-0.155303,0.018844
800.921651,0.022727,0.037689
800.954969,-0.120455,0.063748
800.988286,0.025000,0.038753
801.021603,-0.097727,0.069188
801.054919,-0.045455,0.039365
801.088235,0.113636,0.049533
801.121551,-0.004545,0.059396
801.154867,0.045455,0.039365
801.188183,0.025000,0.038753
801.221498,0.227273,0.104149
801.254812,0.113636,0.037689
801.288127,0.177273,0.172533
801.321441,-0.029545,0.092228
801.354755,0.124242,0.018741
801.388069,0.248485,0.049376
801.421382,-0.172727,0.263205
801.454695,0.248485,0.081057
801.488008,0.124242,0.129924
801.521320,0.093182,0.032201
801.554632,0.115909,0.019117
801.587944,0.093182,0.001968
801.621256,0.047727,0.051363
801.654567,-0.070455,0.067449
801.687878,-0.217424,0.019117
801.721189,-0.031061,0.049101
801.754499,0.090909,0.085038
801.787809,-0.093182,0.032201
801.821119,0.138636,0.038753
801.854428,0.093182,0.140114
801.887737,0.206818,0.154992
801.921046,0.217424,0.067065
801.954355,0.575000,0.126269
801.987663,3.895455,0.722094
802.020971,6.852273,0.558410
802.054279,9.256061,0.325143
802.087586,4.300000,0.947670
802.120894,1.120455,0.347562
802.154200,0.248485,0.019285
802.187507,0.275000,0.083837
802.220813,0.154545,0.116509
802.254119,0.138636,0.050347
802.287425,0.095455,0.097569
802.320730,0.043182,0.123037
802.354035,-0.584091,0.046396
802.387340,0.140909,0.069048
802.420644,0.090909,0.115887
802.453949,-0.031061,0.049101
802.487252,0.552273,0.185011
802.520556,-0.115909,0.067065
802.553859,0.020455,0.039414
802.587162,0.070455,0.020423
802.620465,0.186364,0.085129
802.653767,-0.163636,0.038569
802.687069,0.204545,0.177142
802.720371,0.020455,0.039414
802.753673,0.234091,0.052654
802.786974,0.015909,0.098458
802.820275,-0.047727,0.023918
802.853576,0.000000,0.032141
802.886876,-0.070455,0.049832
802.920176,-0.136364,0.093707
802.953476,-0.211364,0.088804
802.986775,0.184091,0.030555
803.020074,0.465909,0.167300
803.053373,-0.161364,0.036699
803.086672,0.031061,0.049101
803.119970,0.163636,0.093376
803.153268,0.113636,0.165066
803.186565,-0.052273,0.073881
803.219863,-0.218182,0.114812
803.253160,-0.155303,0.066988
803.286457,0.236364,0.201133
803.319753,-0.143182,0.055519
803.353049,-0.011364,0.214634
803.386345,-0.031061,0.037119
803.419641,0.111364,0.180689
803.452936,0.090909,0.055670
803.486231,-0.002273,0.033767
803.519525,-0.002273,0.072612
803.552820,-0.120455,0.063748
803.586114,0.217424,0.019117
803.619408,0.047727,0.040064
803.652701,0.163636,0.098753
803.685994,0.043182,0.135046
803.719287,0.047727,0.051363
803.752580,0.252273,0.065899
803.785872,0.155303,0.018844
803.819164,0.000000,0.055670
803.852456,0.248485,0.161859
803.885747,1.436364,0.450940
803.919038,4.845455,0.293067
803.952329,8.722727,0.344399
803.985620,10.281061,0.589144
804.018910,3.106818,0.135160
804.052200,0.807576,0.114158
804.085489,0.031061,0.018568
804.118779,0.000000,0.000000
804.152068,-0.047727,0.068588
804.185357,0.045455,0.050820
804.218645,0.200000,0.125474
804.251933,0.020455,0.039414
804.285221,0.020455,0.050858
804.318508,-0.002273,0.046619
804.351796,0.341667,0.019911
804.385083,0.113636,0.087286
804.418369,-0.115909,0.019117
804.451656,0.248485,0.049376
804.484942,0.038636,0.177749
804.518227,-0.124242,0.066959
804.551513,0.043182,0.052359
804.584798,-0.093182,0.032201
804.618083,-0.155303,0.074299
804.651367,0.140909,0.025206
804.684652,0.000000,0.032141
804.717936,-0.238636,0.084083
804.751219,0.155303,0.018844
804.784503,-0.022727,0.037689
804.817786,0.163636,0.206906
804.851068,0.179545,0.239023
804.884351,0.000000,0.055670
804.917633,0.217424,0.037397
804.950915,0.045455,0.022727
804.984196,0.068182,0.037689
805.017478,0.111364,0.142309
805.050759,-0.062121,0.018603
805.084039,-0.047727,0.040064
805.117320,0.002273,0.072612
805.150600,0.247727,0.197489
805.183879,-0.093182,0.001968
805.217159,0.000000,0.000000
805.250438,0.252273,0.047714
805.283717,-0.163636,0.021320
805.316995,0.217424,0.049311
805.350274,0.343182,0.107102
805.383552,0.209091,0.037206
805.416829,-0.124242,0.037206
805.450107,0.155303,0.066988
805.483384,-0.062121,0.080898
805.516660,-0.118182,0.060473
805.549937,0.115909,0.049311
805.583213,0.031061,0.037119
805.616489,0.179545,0.098037
805.649764,0.062121,0.018603
805.683040,0.031061,0.037119
805.716315,-0.100000,0.141056
805.749589,-0.145455,0.202158
805.782864,0.129545,0.235934
805.816138,0.861364,0.081652
805.849411,7.747727,0.643068
805.882685,16.647727,0.470837
805.915958,18.784091,1.139923
805.949231,6.434091,1.223101
805.982504,2.379545,0.535789
806.015776,0.247727,0.197489
806.049048,0.268182,0.150807
806.082319,-0.155303,0.049206
806.115591,-0.124242,0.018741
806.148862,-0.027273,0.110128
806.182133,0.043182,0.172049
806.215403,0.068182,0.059047
806.248673,0.159091,0.137777
806.281943,-0.000000,0.085038
806.315213,-0.124242,0.049167
806.348482,0.045455,0.075378
806.381751,-0.050000,0.053926
806.415019,-0.279545,0.032679
806.448288,-0.022727,0.067228
806.481556,0.138636,0.050347
806.514823,0.118182,0.068484
806.548091,0.248485,0.019285
806.581358,0.118182,0.039886
806.614625,-0.031061,0.080890
806.647891,-0.124242,0.037206
806.681158,0.043182,0.052359
806.714424,0.022727,0.067228
806.747689,0.088636,0.112282
806.780955,-0.052273,0.086744
806.814220,-0.070455,0.020423
806.847484,-0.031061,0.074230
806.880749,0.277273,0.029016
806.914013,-0.163636,0.021320
806.947277,-0.095455,0.057631
806.980540,0.161364,0.017714
807.013803,-0.097727,0.088804
807.047066,0.452273,0.454095
807.080329,0.090909,0.055670
807.113591,0.429545,0.272640
807.146853,0.070455,0.081335
807.180115,-0.045455,0.022727
807.213376,0.177273,0.115059
807.246637,0.404545,0.312969
807.279898,-0.068182,0.037689
807.313159,0.000000,0.055670
807.346419,0.020455,0.180403
807.379679,-0.188636,0.037119
807.412938,-0.004545,0.214204
807.446198,0.113636,0.037689
807.479457,0.022727,0.037689
807.512715,0.045455,0.022727
807.545974,0.000000,0.085038
807.579232,-0.022727,0.067228
807.612490,-0.004545,0.171331
807.645747,-0.097727,0.088804
807.679004,-0.045455,0.050820
807.712261,-0.050000,0.123712
807.745518,0.661364,0.272260
807.778774,5.172727,0.971633
807.812030,15.784091,0.635018
807.845285,23.845455,0.910873
807.878541,14.862879,0.321600
807.911796,4.250000,0.373966
807.945051,0.245455,0.218796
807.978305,-0.161364,0.117233
808.011559,-0.447727,0.079602
808.044813,0.138636,0.130375
808.078066,0.465909,0.140446
808.111320,0.090909,0.078730
808.144573,0.275000,0.237940
808.177825,0.045455,0.022727
808.211078,-0.115909,0.019117
808.244330,-0.143182,0.055519
808.277581,0.043182,0.069337
808.310833,0.206818,0.097774
808.344084,0.279545,0.170178
808.377335,0.343182,0.132925
808.410585,0.000000,0.032141
808.443835,-0.190909,0.095671
808.477085,0.000000,0.055670
808.510335,-0.259091,0.078302
808.543584,0.217424,0.074369
808.576833,-0.165909,0.077298
808.610082,0.111364,0.068963
808.643330,-0.468182,0.135356
808.676578,0.165909,0.077298
808.709826,-0.124242,0.037206
808.743073,0.111364,0.204807
808.776320,0.062121,0.018603
808.809567,-0.302273,0.049101
808.842814,0.062121,0.018603
808.876060,0.062121,0.037137
808.909306,0.300000,0.133066
808.942552,0.134091,0.123456
808.975797,0.093182,0.032201
809.009042,-0.070455,0.038081
809.042287,-0.124242,0.066959
809.075531,0.227273,0.281121
809.108775,-0.188636,0.087041
809.142019,0.062121,0.049114
809.175262,0.093182,0.085060
809.208506,0.136364,0.050820
809.241748,0.231818,0.206843
809.274991,-0.004545,0.074793
809.308233,-0.125000,0.112924
809.341475,0.209091,0.080930
809.374717,0.118182,0.088257
809.407958,0.465909,0.085605
809.441199,-0.095455,0.116841
809.474440,-0.234091,0.069560
809.507680,0.011364,0.225204
809.540921,-0.143182,0.055519
809.574160,0.020455,0.050858
809.607400,-0.138636,0.050347
809.640639,0.227273,0.093707
809.673878,0.000000,0.115887
809.707117,0.434848,0.399399
809.740355,3.797727,0.506776
809.773593,11.461364,0.531773
809.806831,20.810606,0.807618
809.840068,10.509091,1.186338
809.873305,0.931818,0.479298
809.906542,0.229545,0.103422
809.939778,0.186364,0.032381
809.973015,-0.447727,0.111959
810.006250,0.184091,0.084451
810.039486,0.577273,0.449443
810.072721,0.156818,0.118765
810.105956,0.609091,0.384541
810.139191,0.090909,0.032141
810.172425,-0.186364,0.064403
810.205659,-0.093182,0.001968
810.238893,-0.124242,0.074273
810.272126,0.465909,0.170360
810.305359,0.550000,0.584064
810.338592,0.040909,0.350641
810.371825,1.259091,0.231629
810.405057,0.124242,0.037206
810.438289,0.020455,0.088044
810.471520,0.025000,0.038753
810.504751,-0.138636,0.050347
810.537982,-0.077273,0.105308
810.571213,0.040909,0.106673
810.604443,-0.138636,0.075060
810.637673,0.206818,0.154992
810.670903,-0.004545,0.093237
810.704133,-0.062121,0.066920
810.737362,-0.050000,0.146639
810.770591,-0.211364,0.041082
810.803819,-0.470455,0.214610
810.837047,0.070455,0.020423
810.870275,-0.068182,0.117546
810.903503,0.043182,0.123037
810.936730,-0.427273,0.118269
810.969957,0.163636,0.038569
811.003184,-0.120455,0.071392
811.036410,-0.070455,0.049832
811.069636,-0.140909,0.051975
811.102862,0.248485,0.133917
811.136087,-0.354545,0.090110
811.169312,0.127273,0.219786
811.202537,-0.284091,0.072541
811.235762,-0.095455,0.035428
811.268986,0.134091,0.070078
811.302210,-0.402273,0.087927
811.335433,-0.327273,0.114812
811.368656,0.068182,0.067228
811.401879,0.277273,0.053926
811.435102,-0.186364,0.128625
811.468324,0.403788,0.130177
811.501546,1.606818,0.595293
811.534768,0.425000,0.659509
811.567990,-0.059091,0.215454
811.601211,-0.213636,0.167428
811.634432,-0.118182,0.099274
811.667652,0.063636,0.222542
811.700872,3.672727,0.568418
811.734092,7.775000,0.879551
811.767312,10.746970,1.255655
811.800531,4.525000,0.462212
811.833750,2.106818,0.286911
811.866969,-0.050000,0.070528
811.900187,0.163636,0.067726
811.933405,-0.329545,0.058773
811.966623,-0.468182,0.062117
811.999840,-0.031061,0.037119
812.033057,-0.155303,0.049206
812.066274,-0.118182,0.118269
812.099490,-0.095455,0.057631
812.132707,0.217424,0.081017
812.165923,0.018182,0.089995
812.199138,0.124242,0.049167
812.232353,-0.062121,0.018603
812.265568,0.370455,0.094987
812.298783,-0.170455,0.096925
812.331997,-0.143182,0.055519
812.365211,-0.022727,0.037689
812.398425,0.118182,0.113818
812.431638,-0.259091,0.044710
812.464851,0.297727,0.102418
812.498064,-0.254545,0.035791
812.531277,-0.097727,0.076289
812.564489,-0.118182,0.039886
812.597701,-0.093182,0.055705
812.630912,-0.186364,0.055809
812.664123,0.015909,0.117585
