#{
#    "background_file": "Backgrounds\\\\bg_785.995nm_13bin_219st_244en_10.0s_110g_4x_13_seq.txt",
#    "ccd_image_settings": [
#        1,
#        13,
#        1,
#        1600,
#        219,
#        244
#    ],
#    "ccd_temperature": "-87",
#    "cdRatios": {
#        "mean": 0.9388873814879868,
#        "std": 0.011685115593318637
#    },
#    "center_lambda": 786.0,
#    "comments": "",
#    "dark_region": 14.033354398405317,
#    "date": "10/22/20 17:34:20PM",
#    "eff_field": 1.5,
#    "exposure": 10.0,
#    "fel_lambda": "15.0",
#    "fel_pol": "H",
#    "fel_pulses": 43,
#    "fel_pyro_cal": "0.012",
#    "fel_reprate": "1.07",
#    "fel_transmission": "1.0",
#    "fel_transmission_fits": {
#        "A": 1.0,
#        "C": 0.0,
#        "Mu": 0.0
#    },
#    "fieldInt": {
#        "mean": 4953.185874999999,
#        "std": 160.50450088644436
#    },
#    "fieldStrength": {
#        "mean": 32.28239772727272,
#        "std": 0.528423453894881
#    },
#    "fpTime": {
#        "mean": 1.1319811964051112,
#        "std": 0.07116488385346098
#    },
#    "gain": 110,
#    "grating": 3,
#    "images_in_sequence": [
#        "hsg_820nm_c123_a90_HAna481.txt",
#        "hsg_820nm_c123_a90_HAna482.txt",
#        "hsg_820nm_c123_a90_HAna483.txt",
#        "hsg_820nm_c123_a90_HAna484.txt"
#    ],
#    "nir_lambda": "819.98",
#    "nir_pola": "90",
#    "nir_polg": "0",
#    "nir_power": "100.0",
#    "pulseEnergies": {
#        "mean": 1.524001893939394,
#        "std": 0.06071010644254572
#    },
#    "pyroVoltage": {
#        "mean": 0.13533207496664085,
#        "std": 0.006707502491411452
#    },
#    "rotatorAngle": 112.49999633788168,
#    "sample_Temp": "55",
#    "sample_name": "L001218.C1",
#    "series": "820_Fan",
#    "slits": "60",
#    "spec_step": "",
#    "window_trans": 0.92,
#    "y_max": 2,
#    "y_min": 1
#}
#
#
#
#
#
#
#
#
#
#
#
#
#
#
#
#
#
#
#
#
#
#
#
#
#
#
Wavelength,Signal,error
nm,arb. u.,arb.u.
Wavelength,820_Fan,error
759.194366,0.000000,0.032141
759.228015,0.279545,0.167115
759.261663,0.062121,0.037137
759.295311,-0.004545,0.067535
759.328959,0.138636,0.038753
759.362607,0.184091,0.106133
759.396254,-0.090909,0.101639
759.429901,-0.070455,0.049832
759.463548,0.456818,0.241816
759.497194,0.022727,0.188445
759.530841,0.138636,0.038753
759.564487,-0.124242,0.049167
759.598133,0.000000,0.000000
759.631779,-0.004545,0.134129
759.665424,0.047727,0.082282
759.699069,-0.217424,0.037397
759.732714,0.062121,0.049114
759.766359,0.502273,0.253190
759.800003,0.090909,0.032141
759.833648,0.070455,0.081335
759.867292,-0.248485,0.019285
759.900935,0.227273,0.223838
759.934579,0.202273,0.109957
759.968222,0.018182,0.070711
760.001865,-0.045455,0.050820
760.035508,0.025000,0.038753
760.069151,0.234091,0.114469
760.102793,0.659091,0.259877
760.136435,0.095455,0.080128
760.170077,-0.140909,0.082666
760.203718,-0.029545,0.080249
760.237360,-0.213636,0.255386
760.271001,0.341667,0.206765
760.304642,0.062121,0.092793
760.338283,0.093182,0.115904
760.371923,0.068182,0.087286
760.405563,0.134091,0.100380
760.439203,-0.093182,0.032201
760.472843,0.372727,0.033091
760.506482,0.000000,0.200722
760.540122,0.181818,0.085038
760.573761,0.327273,0.105431
760.607399,0.456818,0.180689
760.641038,-0.031061,0.037119
760.674676,0.093182,0.064313
760.708314,0.217424,0.049311
760.741952,0.154545,0.116509
760.775589,-0.143182,0.055519
760.809227,0.115909,0.158615
760.842864,0.186364,0.032381
760.876501,-0.186364,0.032381
760.910137,0.277273,0.070528
760.943774,0.536364,0.099897
760.977410,0.454545,0.420301
761.011046,0.279545,0.140225
761.044681,0.000000,0.032141
761.078317,0.115909,0.074369
761.111952,0.093182,0.111358
761.145587,-0.115909,0.037397
761.179221,0.065909,0.113880
761.212856,-0.284091,0.193098
761.246490,0.155303,0.177050
761.280124,0.031061,0.018568
761.313758,0.047727,0.051363
761.347391,0.686364,0.432911
761.381024,-0.022727,0.049533
761.414657,0.000000,0.064282
761.448290,0.093182,0.055705
761.481923,0.124242,0.049167
761.515555,0.065909,0.088337
761.549187,-0.186364,0.064403
761.582819,-0.062121,0.018603
761.616450,-0.211364,0.162730
761.650082,-0.188636,0.049101
761.683713,0.022727,0.081153
761.717344,-0.093182,0.115904
761.750974,-0.248485,0.037483
761.784605,-0.281818,0.081692
761.818235,0.093182,0.055705
761.851865,0.293182,0.210283
761.885494,-0.261364,0.183497
761.919124,0.277273,0.029016
761.952753,-0.093182,0.032201
761.986382,0.062121,0.066920
762.020010,0.340909,0.218879
762.053639,0.545455,0.274615
762.087267,0.231818,0.049948
762.120895,0.113636,0.126029
762.154523,-0.124242,0.018741
762.188150,-0.209091,0.049167
762.221777,-0.002273,0.079407
762.255404,0.093182,0.032201
762.289031,-0.025000,0.038753
762.322658,0.093182,0.032201
762.356284,0.086364,0.118596
762.389910,-0.400000,0.060644
762.423536,0.113636,0.081153
762.457161,-0.248485,0.081057
762.490786,0.090909,0.078730
762.524411,0.065909,0.165625
762.558036,-0.062121,0.037137
762.591661,0.204545,0.158685
762.625285,-0.341667,0.049624
762.658909,0.181818,0.071870
762.692533,-0.002273,0.033767
762.726157,-0.054545,0.111155
762.759780,0.429545,0.266896
762.793403,0.372727,0.251154
762.827026,0.136364,0.122390
762.860649,0.025000,0.087751
762.894271,-0.068182,0.059047
762.927893,0.020455,0.039414
762.961515,0.179545,0.137509
762.995137,0.093182,0.064313
763.028758,0.113636,0.059047
763.062379,-0.072727,0.061322
763.096000,0.000000,0.064282
763.129621,0.138636,0.038753
763.163241,-0.002273,0.136756
763.196862,0.206818,0.057977
763.230481,0.206818,0.057977
763.264101,0.497727,0.211141
763.297721,0.188636,0.074230
763.331340,-0.186364,0.032381
763.364959,0.093182,0.115904
763.398578,-0.313636,0.330000
763.432196,0.231818,0.261936
763.465814,-0.045455,0.188787
763.499432,0.084091,0.137246
763.533050,0.186364,0.032381
763.566668,0.256818,0.113562
763.600285,0.472727,0.486215
763.633902,0.345455,0.106794
763.667519,0.579545,0.115188
763.701135,-0.095455,0.047835
763.734752,-0.031818,0.124212
763.768368,0.434091,0.218001
763.801984,0.072727,0.088840
763.835599,0.300000,0.208646
763.869215,0.115909,0.049311
763.902830,-0.097727,0.069188
763.936444,0.062121,0.037137
763.970059,0.181818,0.184637
764.003673,0.093182,0.055705
764.037288,0.252273,0.121133
764.070901,-0.341667,0.019911
764.104515,-0.165909,0.053626
764.138128,0.093182,0.032201
764.171742,0.068182,0.067228
764.205354,0.093182,0.111358
764.238967,0.186364,0.147342
764.272580,-0.254545,0.057854
764.306192,0.302273,0.049101
764.339804,0.368182,0.051975
764.373415,-0.004545,0.093237
764.407027,0.209091,0.112907
764.440638,0.252273,0.112282
764.474249,0.206818,0.073671
764.507860,-0.375000,0.060931
764.541470,0.347727,0.223107
764.575080,0.686364,0.255952
764.608690,0.109091,0.157590
764.642300,-0.302273,0.066910
764.675909,0.070455,0.098563
764.709519,0.184091,0.030555
764.743128,0.000000,0.032141
764.776736,0.159091,0.113067
764.810345,0.045455,0.022727
764.843953,-0.093182,0.032201
764.877561,-0.254545,0.057854
764.911169,0.320455,0.287935
764.944776,0.068182,0.067228
764.978384,0.062121,0.049114
765.011991,-0.062121,0.049114
765.045598,0.227273,0.099066
765.079204,0.072727,0.088840
765.112810,-0.031061,0.018568
765.146416,0.045455,0.081944
765.180022,0.436364,0.131897
765.213628,-0.186364,0.032381
765.247233,-0.002273,0.136756
765.280838,0.547727,0.232894
765.314443,0.343182,0.269112
765.348048,0.068182,0.087286
765.381652,-0.124242,0.037206
765.415256,0.181818,0.090909
765.448860,0.062121,0.066920
765.482463,0.093182,0.195517
765.516067,0.186364,0.032381
765.549670,-0.186364,0.003936
765.583273,0.229545,0.204176
765.616875,-0.025000,0.059732
765.650478,-0.279545,0.032679
765.684080,0.211364,0.041082
765.717682,0.070455,0.049832
765.751283,0.047727,0.145716
765.784885,0.204545,0.180034
765.818486,0.088636,0.057530
765.852087,0.031061,0.037119
765.885687,-0.118182,0.039886
765.919288,0.136364,0.093707
765.952888,0.000000,0.032141
765.986488,0.155303,0.037258
766.020087,0.124242,0.037206
766.053687,-0.047727,0.023918
766.087286,0.370455,0.214971
766.120885,0.031061,0.049101
766.154484,0.113636,0.087286
766.188082,0.022727,0.019682
766.221680,0.227273,0.207055
766.255278,-0.310606,0.081153
766.288876,0.186364,0.064403
766.322473,0.113636,0.103528
766.356070,0.186364,0.055809
766.389667,0.320455,0.198792
766.423264,-0.209091,0.066959
766.456860,0.093182,0.001968
766.490457,0.302273,0.037119
766.524053,0.113636,0.049533
766.557648,0.322727,0.121181
766.591244,0.138636,0.050347
766.624839,0.131818,0.225482
766.658434,0.072727,0.076331
766.692029,0.465909,0.033614
766.725623,0.047727,0.122617
766.759217,-0.025000,0.059732
766.792811,-0.188636,0.080890
766.826405,-0.165909,0.042927
766.859999,0.234091,0.041706
766.893592,0.138636,0.075060
766.927185,0.136364,0.118094
766.960777,-0.496970,0.021320
766.994370,-0.062121,0.037137
767.027962,0.090909,0.045455
767.061554,0.090909,0.106600
767.095146,0.393182,0.160815
767.128737,0.106818,0.320904
767.162329,-0.209091,0.066959
767.195920,-0.093182,0.001968
767.229510,0.434848,0.098622
767.263101,-0.124242,0.018741
767.296691,-0.124242,0.018741
767.330281,-0.325000,0.019911
767.363871,-0.188636,0.080890
767.397460,0.206818,0.035989
767.431050,0.211364,0.069188
767.464639,0.656818,0.225227
767.498227,0.652273,0.225410
767.531816,0.093182,0.032201
767.565404,-0.215909,0.095583
767.598992,0.047727,0.023918
767.632580,0.031061,0.018568
767.666168,0.341667,0.130098
767.699755,0.068182,0.037689
767.733342,0.070455,0.020423
767.766929,0.062121,0.049114
767.800515,0.111364,0.104663
767.834101,0.047727,0.051363
767.867687,-0.120455,0.055052
767.901273,0.063636,0.090568
767.934859,-0.029545,0.308679
767.968444,0.062121,0.049114
768.002029,0.124242,0.018741
768.035614,0.068182,0.037689
768.069198,0.000000,0.055670
768.102783,-0.725000,0.053819
768.136367,0.113636,0.155395
768.169950,-0.124242,0.037206
768.203534,0.155303,0.049206
768.237117,0.111364,0.088629
768.270700,0.115909,0.019117
768.304283,0.124242,0.018741
768.337866,-0.217424,0.037397
768.371448,-0.047727,0.023918
768.405030,-0.070455,0.130177
768.438612,0.186364,0.085129
768.472193,0.254545,0.057854
768.505775,0.206818,0.179686
768.539356,0.065909,0.060591
768.572936,0.202273,0.089210
768.606517,-0.350000,0.051174
768.640097,-0.020455,0.104168
768.673677,0.000000,0.032141
768.707257,-0.062121,0.074239
768.740836,0.209091,0.098228
768.774416,0.368182,0.094339
768.807995,0.159091,0.081153
768.841574,0.115909,0.019117
768.875152,0.415909,0.227463
768.908730,0.209091,0.103353
768.942308,0.113636,0.098412
768.975886,0.065909,0.068588
769.009464,0.297727,0.079732
769.043041,0.025000,0.038753
769.076618,0.206818,0.035989
769.110195,-0.002273,0.033767
769.143771,-0.031061,0.018568
769.177348,-0.070455,0.038081
769.210924,-0.093182,0.001968
769.244499,0.186364,0.003936
769.278075,0.070455,0.067449
769.311650,0.025000,0.038753
769.345225,0.043182,0.052359
769.378800,0.093182,0.032201
769.412375,0.088636,0.097509
769.445949,-0.000000,0.170075
769.479523,0.000000,0.055670
769.513097,-0.031061,0.080890
769.546670,0.279545,0.032679
769.580243,-0.209091,0.074273
769.613816,0.454545,0.263087
769.647389,-0.259091,0.136117
769.680962,0.252273,0.170693
769.714534,0.155303,0.164969
769.748106,0.184091,0.054770
769.781678,0.136364,0.068182
769.815249,-0.155303,0.074299
769.848820,-0.209091,0.066959
769.882391,0.090909,0.078730
769.915962,0.040909,0.101716
769.949533,0.370455,0.297604
769.983103,0.000000,0.000000
770.016673,-0.062121,0.037137
770.050243,0.000000,0.032141
770.083812,-0.006818,0.169874
770.117381,0.000000,0.032141
770.150950,0.025000,0.087751
770.184519,-0.186364,0.032381
770.218088,-0.068182,0.037689
770.251656,-0.124242,0.066959
770.285224,-0.186364,0.032381
770.318791,0.065909,0.094003
770.352359,0.345455,0.136515
770.385926,0.115909,0.019117
770.419493,0.184091,0.054770
770.453060,-0.447727,0.079602
770.486626,0.209091,0.049167
770.520192,0.000000,0.064282
770.553758,0.134091,0.077097
770.587324,0.062121,0.018603
770.620890,0.043182,0.052359
770.654455,0.115909,0.019117
770.688020,0.186364,0.064403
770.721584,-0.047727,0.051363
770.755149,-0.002273,0.033767
770.788713,0.115909,0.074369
770.822277,0.090909,0.055670
770.855841,-0.434848,0.049948
770.889404,0.065909,0.060591
770.922967,-0.217424,0.019117
770.956530,0.155303,0.049206
770.990093,0.231818,0.113249
771.023655,-0.093182,0.032201
771.057217,-0.093182,0.085060
771.090779,-0.068182,0.059047
771.124341,-0.329545,0.058773
771.157902,0.155303,0.066988
771.191463,0.206818,0.125531
771.225024,0.279545,0.116037
771.258585,0.184091,0.189888
771.292145,0.184091,0.084451
771.325705,0.411364,0.203669
771.359265,-0.062121,0.018603
771.392825,0.062121,0.037137
771.426384,0.177273,0.172533
771.459943,0.000000,0.055670
771.493502,-0.062121,0.018603
771.527061,0.310606,0.158685
771.560619,-0.081818,0.350118
771.594177,-0.043182,0.094551
771.627735,0.111364,0.068963
771.661293,0.217424,0.049311
771.694850,-0.279545,0.032679
771.728407,0.045455,0.050820
771.761964,0.140909,0.025206
771.795521,0.093182,0.064313
771.829077,0.022727,0.049533
771.862633,0.090909,0.071870
771.896189,-0.072727,0.099793
771.929744,-0.248485,0.049376
771.963300,0.254545,0.116952
771.996855,0.138636,0.050347
772.030409,0.118182,0.099274
772.063964,-0.031061,0.037119
772.097518,-0.140909,0.069048
772.131072,-0.310606,0.067228
772.164626,0.161364,0.086863
772.198180,0.063636,0.101334
772.231733,-0.031061,0.037119
772.265286,-0.090909,0.055670
772.298839,0.227273,0.159091
772.332391,0.302273,0.098195
772.365943,0.022727,0.019682
772.399495,1.025000,0.474944
772.433047,0.154545,0.154612
772.466598,0.347727,0.086147
772.500150,0.368182,0.199729
772.533701,-0.093182,0.064313
772.567251,-0.070455,0.049832
772.600802,0.027273,0.123399
772.634352,0.184091,0.071175
772.667902,0.163636,0.021320
772.701452,-0.155303,0.121729
772.735001,-0.138636,0.050347
772.768550,0.234091,0.135160
772.802099,-0.304545,0.027555
772.835648,0.068182,0.037689
772.869196,-0.029545,0.080249
772.902744,-0.068182,0.059047
772.936292,0.093182,0.055705
772.969840,0.206818,0.102921
773.003387,0.277273,0.077506
773.036934,0.155303,0.037258
773.070481,0.209091,0.049167
773.104028,-0.217424,0.019117
773.137574,0.186364,0.064403
773.171120,-0.031061,0.066910
773.204666,0.184091,0.030555
773.238212,0.062121,0.112884
773.271757,-0.025000,0.038753
773.305302,0.440909,0.065358
773.338847,0.124242,0.049167
773.372391,0.093182,0.032201
773.405936,-0.045455,0.022727
773.439480,-0.031061,0.018568
773.473024,0.165909,0.089672
773.506567,0.436364,0.160191
773.540110,0.038636,0.104564
773.573653,0.084091,0.148107
773.607196,0.259091,0.111038
773.640739,0.022727,0.037689
773.674281,-0.234091,0.026577
773.707823,0.115909,0.049311
773.741365,0.138636,0.021651
773.774906,0.140909,0.040846
773.808447,-0.062121,0.018603
773.841988,0.155303,0.049206
773.875529,0.047727,0.040064
773.909070,-0.186364,0.032381
773.942610,-0.217424,0.019117
773.976150,0.061364,0.152573
774.009689,0.000000,0.032141
774.043229,-0.022727,0.019682
774.076768,0.211364,0.041082
774.110307,-0.279545,0.032679
774.143845,0.118182,0.060473
774.177384,-0.072727,0.082822
774.210922,0.113636,0.049533
774.244460,0.577273,0.126683
774.277997,0.209091,0.066959
774.311535,0.231818,0.098622
774.345072,-0.002273,0.033767
774.378609,-0.168182,0.155262
774.412145,0.068182,0.037689
774.445682,0.363636,0.402728
774.479218,0.363636,0.251031
774.512754,0.184091,0.106133
774.546289,-0.122727,0.082165
774.579824,-0.310606,0.049533
774.613359,0.025000,0.067831
774.646894,0.161364,0.058421
774.680429,0.002273,0.085666
774.713963,0.486364,0.178767
774.747497,0.413636,0.251062
774.781031,0.000000,0.032141
774.814564,-0.155303,0.049206
774.848097,-0.045455,0.022727
774.881630,0.068182,0.037689
774.915163,0.161364,0.066679
774.948696,0.352273,0.218214
774.982228,0.188636,0.074230
775.015760,-0.050000,0.095427
775.049291,0.227273,0.177506
775.082823,-0.027273,0.062158
775.116354,-0.093182,0.032201
775.149885,-0.031061,0.018568
775.183416,-0.118182,0.060473
775.216946,-0.377273,0.066920
775.250476,0.124242,0.103353
775.284006,0.115909,0.037397
775.317535,-0.310606,0.049533
775.351065,0.031061,0.074230
775.384594,0.000000,0.111340
775.418123,0.093182,0.032201
775.451651,0.163636,0.232752
775.485180,-0.341667,0.081208
775.518708,-0.115909,0.037397
775.552235,0.022727,0.049533
775.585763,-0.279545,0.032679
775.619290,0.231818,0.020706
775.652817,0.140909,0.040846
775.686344,0.115909,0.098300
775.719870,0.177273,0.197649
775.753397,-0.002273,0.085666
775.786923,0.062121,0.121692
775.820448,-0.120455,0.055052
775.853974,0.756818,0.260787
775.887499,0.088636,0.057530
775.921024,-0.025000,0.038753
775.954549,0.043182,0.199829
775.988073,0.236364,0.147850
776.021597,0.341667,0.103571
776.055121,0.013636,0.120840
776.088645,0.275000,0.153485
776.122168,-0.310606,0.019682
776.155691,0.436364,0.329098
776.189214,-0.281818,0.075103
776.222737,0.217424,0.037397
776.256259,-0.170455,0.107054
776.289781,0.415909,0.225181
776.323303,0.248485,0.081057
776.356824,0.225000,0.189752
776.390346,0.093182,0.032201
776.423867,0.272727,0.140100
776.457387,-0.138636,0.158941
776.490908,0.155303,0.098248
776.524428,0.181818,0.266985
776.557948,-0.302273,0.037119
776.591468,0.040909,0.071978
776.624987,0.161364,0.036699
776.658506,-0.045455,0.050820
776.692025,-0.163636,0.050206
776.725544,-0.186364,0.064403
776.759062,0.248485,0.098333
776.792581,0.124242,0.018741
776.826099,0.415909,0.132848
776.859616,0.302273,0.103322
776.893134,0.118182,0.060473
776.926651,0.136364,0.068182
776.960167,0.068182,0.037689
776.993684,0.186364,0.055809
777.027200,0.143182,0.106522
777.060716,0.372727,0.033091
777.094232,0.188636,0.103322
777.127748,0.202273,0.135237
777.161263,0.163636,0.021320
777.194778,0.084091,0.173782
777.228293,0.231818,0.038233
777.261807,0.159091,0.067228
777.295322,0.156818,0.088920
777.328836,-0.125000,0.155291
777.362349,0.275000,0.169478
777.395863,0.090909,0.032141
777.429376,-0.027273,0.069976
777.462889,-0.062121,0.018603
777.496401,-0.022727,0.019682
777.529914,0.186364,0.115954
777.563426,0.062121,0.037137
777.596938,0.434848,0.020706
777.630449,0.043182,0.041333
777.663961,0.341667,0.067295
777.697472,0.031061,0.018568
777.730983,0.013636,0.157901
777.764493,-0.115909,0.019117
777.798004,0.683333,0.165566
777.831514,0.547727,0.375521
777.865023,0.093182,0.032201
777.898533,0.352273,0.102115
777.932042,0.388636,0.184788
777.965551,0.161364,0.058421
777.999060,-0.056818,0.233646
778.032568,0.272727,0.085038
778.066076,0.022727,0.049533
778.099584,-0.002273,0.033767
778.133092,0.124242,0.018741
778.166599,0.463636,0.114361
778.200107,-0.031061,0.018568
778.233613,-0.025000,0.038753
778.267120,-0.047727,0.040064
778.300626,0.481818,0.131504
778.334132,-0.029545,0.086446
778.367638,0.088636,0.073320
778.401144,0.456818,0.397050
778.434649,0.070455,0.038081
778.468154,0.068182,0.019682
778.501659,0.113636,0.037689
778.535163,0.090909,0.078730
778.568668,0.093182,0.032201
778.602172,0.047727,0.023918
778.635675,-0.256818,0.050654
778.669179,0.163636,0.038569
778.702682,0.431818,0.201685
778.736185,0.068182,0.059047
778.769688,0.093182,0.096444
778.803190,-0.163636,0.021320
778.836692,0.279545,0.032679
778.870194,0.181818,0.200722
778.903696,0.090909,0.032141
778.937197,0.459091,0.261936
778.970698,0.229545,0.133893
779.004199,-0.062121,0.049114
779.037699,0.161364,0.036699
779.071200,0.209091,0.018741
779.104700,0.068182,0.117546
779.138199,0.297727,0.179398
779.171699,0.025000,0.038753
779.205198,0.095455,0.073399
779.238697,0.000000,0.055670
779.272196,0.115909,0.019117
779.305694,0.043182,0.146070
779.339192,-0.025000,0.038753
779.372690,0.093182,0.032201
779.406188,0.184091,0.044347
779.439685,-0.031061,0.018568
779.473182,-0.234091,0.026577
779.506679,0.109091,0.101843
779.540176,-0.138636,0.050347
779.573672,-0.279545,0.032679
779.607168,0.415909,0.287630
779.640664,0.484091,0.149841
779.674160,0.845455,0.225310
779.707655,0.252273,0.092059
779.741150,0.045455,0.050820
779.774644,0.504545,0.181292
779.808139,0.217424,0.049311
779.841633,0.068182,0.037689
779.875127,0.231818,0.067535
779.908621,0.341667,0.148629
779.942114,-0.068182,0.037689
779.975607,0.062121,0.049114
780.009100,-0.236364,0.057135
780.042593,0.254545,0.097701
780.076085,-0.115909,0.067065
780.109577,-0.045455,0.022727
780.143069,0.045455,0.050820
780.176560,-0.093182,0.001968
780.210052,-0.093182,0.085060
780.243543,0.161364,0.196308
780.277033,0.393182,0.316609
780.310524,-0.279545,0.064553
780.344014,-0.004545,0.067535
780.377504,0.134091,0.119199
780.410994,-0.231818,0.038233
780.444483,0.254545,0.035791
780.477972,0.093182,0.032201
780.511461,0.093182,0.001968
780.544950,-0.004545,0.074793
780.578438,0.248485,0.067113
780.611926,0.022727,0.067228
780.645414,0.159091,0.113067
780.678902,0.186364,0.064403
780.712389,0.184091,0.054770
780.745876,0.140909,0.040846
780.779363,0.479545,0.213089
780.812849,-0.072727,0.088840
780.846335,-0.027273,0.069976
780.879821,-0.004545,0.059396
780.913307,0.200000,0.253570
780.946792,0.217424,0.049311
780.980277,0.118182,0.088257
781.013762,-0.155303,0.037258
781.047247,0.031061,0.037119
781.080731,0.022727,0.037689
781.114215,0.211364,0.226439
781.147699,0.000000,0.032141
781.181183,0.031061,0.049101
781.214666,0.111364,0.233115
781.248149,0.070455,0.020423
781.281632,0.156818,0.297465
781.315114,0.047727,0.051363
781.348596,0.161364,0.036699
781.382078,0.140909,0.076162
781.415560,0.184091,0.078096
781.449041,0.756818,0.283561
781.482522,0.925000,0.332601
781.516003,0.229545,0.092897
781.549484,0.186364,0.032381
781.582964,0.395455,0.188335
781.616444,0.248485,0.037483
781.649924,0.395455,0.188335
781.683404,0.156818,0.142490
781.716883,-0.124242,0.112907
781.750362,0.156818,0.099864
781.783841,0.231818,0.098622
781.817319,-0.031061,0.121686
781.850797,0.031061,0.080890
781.884275,0.202273,0.094823
781.917753,0.279545,0.032679
781.951230,0.659091,0.302153
781.984707,0.186364,0.032381
782.018184,0.047727,0.040064
782.051661,0.040909,0.106673
782.085137,0.295455,0.257882
782.118613,0.025000,0.059732
782.152089,0.138636,0.021651
782.185564,0.062121,0.018603
782.219040,0.209091,0.074273
782.252515,0.388636,0.140298
782.285989,0.234091,0.105057
782.319464,-0.138636,0.021651
782.352938,0.186364,0.055809
782.386412,0.025000,0.038753
782.419885,-0.211364,0.041082
782.453359,-0.100000,0.213830
782.486832,0.217424,0.049311
782.520305,0.022727,0.049533
782.553777,0.038636,0.109392
782.587249,-0.254545,0.086483
782.620721,-0.704545,0.158685
782.654193,0.065909,0.051363
782.687665,0.186364,0.003936
782.721136,0.184091,0.030555
782.754607,0.093182,0.032201
782.788077,0.186364,0.140156
782.821548,0.095455,0.057631
782.855018,-0.254545,0.035791
782.888488,0.163636,0.021320
782.921957,0.140909,0.025206
782.955427,0.020455,0.075404
782.988896,0.020455,0.075404
783.022365,0.159091,0.067228
783.055833,0.020455,0.075404
783.089301,0.043182,0.052359
783.122769,-0.254545,0.057854
783.156237,0.000000,0.055670
783.189704,0.043182,0.165936
783.223172,0.559091,0.170485
783.256638,0.402273,0.211946
783.290105,0.341667,0.074577
783.323571,0.375000,0.082533
783.357037,-0.031061,0.037119
783.390503,-0.097727,0.076289
783.423969,0.059091,0.141330
783.457434,0.468182,0.153253
783.490899,0.031061,0.080890
783.524364,0.111364,0.088629
783.557828,0.552273,0.185011
783.591292,0.186364,0.032381
783.624756,0.000000,0.032141
783.658220,0.140909,0.134897
783.691683,-0.209091,0.092821
783.725146,0.111364,0.104663
783.758609,0.115909,0.049311
783.792072,0.161364,0.036699
783.825534,-0.045455,0.050820
783.858996,0.186364,0.003936
783.892458,0.018182,0.062984
783.925919,0.018182,0.131897
783.959381,0.118182,0.068484
783.992842,-0.031818,0.111038
784.026302,0.140909,0.069048
784.059763,0.025000,0.098824
784.093223,0.229545,0.067065
784.126683,0.277273,0.043301
784.160142,0.345455,0.164015
784.193601,0.002273,0.072612
784.227060,-0.002273,0.033767
784.260519,0.070455,0.020423
784.293978,0.134091,0.149910
784.327436,0.327273,0.105431
784.360894,0.711364,0.244746
784.394352,0.031061,0.049101
784.427809,-0.022727,0.019682
784.461266,0.093182,0.096444
784.494723,0.161364,0.017714
784.528180,-0.118182,0.088257
784.561636,-0.047727,0.068588
784.595092,0.062121,0.049114
784.628548,0.118182,0.039886
784.662003,0.186364,0.003936
784.695458,-0.093182,0.001968
784.728913,0.186364,0.055809
784.762368,0.163636,0.067726
784.795823,0.547727,0.277429
784.829277,0.068182,0.059047
784.862731,0.047727,0.040064
784.896184,0.124242,0.037206
784.929637,-0.115909,0.049311
784.963091,0.217424,0.037397
784.996543,0.279545,0.085242
785.029996,0.204545,0.103528
785.063448,0.365909,0.083219
785.096900,0.293182,0.215139
785.130352,0.434091,0.203288
785.163803,0.613636,0.456105
785.197254,0.209091,0.158571
785.230705,0.062121,0.080898
785.264156,0.459091,0.209325
785.297606,0.038636,0.126882
785.331056,0.463636,0.189224
785.364506,0.000000,0.064282
785.397955,-0.124242,0.018741
785.431405,0.206818,0.080377
785.464854,-0.234091,0.183750
785.498302,-0.027273,0.069976
785.531751,-0.095455,0.047835
785.565199,0.500000,0.237280
785.598647,-0.400000,0.075788
785.632094,-0.211364,0.025587
785.665542,0.136364,0.122390
785.698989,0.155303,0.151929
785.732436,0.045455,0.039365
785.765882,0.093182,0.001968
785.799328,0.186364,0.085129
785.832774,0.068182,0.087286
785.866220,0.279545,0.032679
785.899665,-0.138636,0.081652
785.933111,0.113636,0.059047
785.966555,-0.281818,0.038836
786.000000,0.043182,0.076424
786.033444,0.186364,0.032381
786.066888,0.093182,0.055705
786.100332,0.062121,0.018603
786.133776,0.140909,0.114158
786.167219,0.225000,0.123874
786.200662,-0.004545,0.059396
786.234104,0.155303,0.066988
786.267547,-0.188636,0.058685
786.300989,0.209091,0.018741
786.334431,0.209091,0.037206
786.367872,0.047727,0.104416
786.401314,0.093182,0.055705
786.434755,-0.031061,0.049101
786.468196,0.163636,0.050206
786.501636,0.045455,0.039365
786.535076,-0.155303,0.066988
786.568516,0.229545,0.103422
786.601956,0.070455,0.020423
786.635395,0.136364,0.068182
786.668834,0.000000,0.096424
786.702273,-0.165909,0.062521
786.735712,0.000000,0.032141
786.769150,-0.062121,0.018603
786.802588,-0.372727,0.007873
786.836026,0.134091,0.159913
786.869463,0.002273,0.056625
786.902900,0.188636,0.058685
786.936337,1.368182,0.168902
786.969774,0.652273,0.097403
787.003210,1.009091,0.397123
787.036646,0.113636,0.037689
787.070082,0.247727,0.322621
787.103518,0.043182,0.118765
787.136953,-0.234091,0.069560
787.170388,0.115909,0.019117
787.203823,0.124242,0.018741
787.237257,-0.120455,0.096068
787.270691,-0.143182,0.055519
787.304125,0.320455,0.249491
787.337559,0.163636,0.050206
787.370992,-0.302273,0.049101
787.404425,0.000000,0.032141
787.437858,-0.031061,0.049101
787.471290,-0.231818,0.067535
787.504723,0.068182,0.037689
787.538155,0.140909,0.076162
787.571586,0.115909,0.049311
787.605018,0.204545,0.103528
787.638449,0.341667,0.074577
787.671880,0.204545,0.103528
787.705310,0.384091,0.340004
787.738741,-0.093182,0.001968
787.772171,0.155303,0.049206
787.805600,-0.002273,0.079407
787.839030,0.070455,0.049832
787.872459,0.020455,0.039414
787.905888,0.093182,0.064313
787.939317,0.211364,0.099761
787.972745,-0.031061,0.037119
788.006173,0.211364,0.041082
788.039601,0.181818,0.132522
788.073028,0.088636,0.267379
788.106456,0.155303,0.018844
788.139883,-0.088636,0.133313
788.173309,0.395455,0.129904
788.206736,0.063636,0.084672
788.240162,0.279545,0.064553
788.273588,0.088636,0.086266
788.307013,0.062121,0.018603
788.340439,0.000000,0.032141
788.373864,-0.031061,0.018568
788.407288,0.031061,0.049101
788.440713,-0.093182,0.085060
788.474137,0.022727,0.081153
788.507561,0.341667,0.098458
788.540985,0.093182,0.064313
788.574408,0.277273,0.105700
788.607831,0.461364,0.081526
788.641254,0.045455,0.050820
788.674677,0.106818,0.191998
788.708099,-0.559091,0.011809
788.741521,0.468182,0.076971
788.774943,0.111364,0.082596
788.808364,0.677273,0.073399
788.841785,0.934091,0.245946
788.875206,0.279545,0.116037
788.908627,0.124242,0.074273
788.942047,0.186364,0.085129
788.975467,0.275000,0.212725
789.008887,-0.120455,0.055052
789.042306,-0.140909,0.025206
789.075726,0.043182,0.123037
789.109145,0.093182,0.064313
789.142563,0.062121,0.018603
789.175982,-0.186364,0.085129
789.209400,0.020455,0.075404
789.242817,0.325000,0.093064
789.276235,0.111364,0.082596
789.309652,0.209091,0.080930
789.343069,-0.281818,0.038836
789.376486,0.138636,0.038753
789.409902,0.043182,0.094551
789.443319,0.420455,0.105841
789.476735,0.131818,0.201274
789.510150,0.031061,0.037119
789.543565,0.297727,0.203669
789.576980,-0.140909,0.040846
789.610395,0.124242,0.133840
789.643810,-0.052273,0.107967
789.677224,-0.029545,0.198740
789.710638,0.513636,0.160497
789.744052,0.140909,0.069048
789.777465,0.270455,0.206815
789.810878,0.022727,0.049533
789.844291,0.000000,0.000000
789.877703,0.140909,0.025206
789.911116,0.154545,0.198496
789.944528,0.070455,0.020423
789.977939,0.113636,0.059047
790.011351,-0.070455,0.038081
790.044762,0.136364,0.050820
790.078173,0.000000,0.032141
790.111583,0.390909,0.084672
790.144994,0.124242,0.018741
790.178404,-0.186364,0.032381
790.211813,-0.807576,0.076162
790.245223,0.000000,0.032141
790.278632,0.045455,0.113636
790.312041,0.227273,0.099066
790.345450,0.043182,0.094551
790.378858,0.186364,0.064403
790.412266,0.047727,0.068588
790.445674,-0.025000,0.038753
790.479081,-0.155303,0.049206
790.512488,0.000000,0.055670
790.545895,-0.072727,0.061322
790.579302,-0.124242,0.049167
790.612708,0.502273,0.173246
790.646115,0.752273,0.266314
790.679520,0.729545,0.376620
790.712926,1.250000,0.362747
790.746331,0.186364,0.085129
790.779736,-0.047727,0.051363
790.813141,0.217424,0.129978
790.846545,-0.155303,0.037258
790.879949,-0.062121,0.098202
790.913353,-0.031061,0.098195
790.946757,-0.072727,0.052223
790.980160,0.429545,0.195385
791.013563,0.217424,0.074369
791.046966,0.140909,0.051975
791.080368,0.184091,0.071175
791.113771,0.231818,0.113249
791.147173,0.095455,0.073399
791.180574,0.093182,0.055705
791.213976,-0.002273,0.033767
791.247377,-0.068182,0.059047
791.280777,0.350000,0.023509
791.314178,0.634091,0.288920
791.347578,0.022727,0.019682
791.380978,0.138636,0.098824
791.414378,0.045455,0.068182
791.447777,-0.279545,0.032679
791.481176,0.031061,0.066910
791.514575,0.062121,0.018603
791.547973,0.161364,0.161679
791.581372,0.552273,0.133042
791.614770,0.045455,0.068182
791.648167,0.161364,0.141216
791.681565,0.020455,0.060163
791.714962,0.343182,0.140482
791.748359,0.252273,0.190703
791.781755,-0.070455,0.020423
791.815152,0.062121,0.018603
791.848548,0.300000,0.034317
791.881943,0.065909,0.113880
791.915339,-0.062121,0.049114
791.948734,0.231818,0.081407
791.982129,0.365909,0.123247
792.015523,0.209091,0.049167
792.048918,-0.068182,0.059047
792.082312,-0.124242,0.018741
792.115705,0.372727,0.147500
792.149099,0.155303,0.129939
792.182492,0.155303,0.103372
792.215885,0.197727,0.389670
792.249278,-0.118182,0.088257
792.282670,0.188636,0.108205
792.316062,0.279545,0.085242
792.349454,0.124242,0.049167
792.382845,-0.022727,0.049533
792.416236,0.547727,0.404652
792.449627,0.248485,0.019285
792.483018,0.575000,0.183046
792.516408,0.931818,0.243458
792.549798,1.020455,0.247933
792.583188,1.615152,0.230567
792.616578,0.465909,0.140446
792.649967,0.310606,0.093015
792.683356,0.861364,0.273585
792.716745,0.390909,0.150550
792.750133,0.086364,0.104718
792.783521,0.159091,0.093015
792.816909,0.186364,0.003936
792.850296,0.209091,0.066959
792.883684,-0.124242,0.066959
792.917071,-0.093182,0.055705
792.950457,0.124242,0.103353
792.983844,-0.259091,0.078302
793.017230,0.068182,0.019682
793.050616,0.568182,0.232608
793.084001,0.318182,0.183233
793.117386,0.411364,0.355235
793.150771,0.095455,0.057631
793.184156,0.411364,0.173544
793.217541,0.093182,0.064313
793.250925,-0.124242,0.049167
793.284309,0.422727,0.126683
793.317692,0.213636,0.125041
793.351075,0.155303,0.080953
793.384458,0.163636,0.038569
793.417841,0.163636,0.050206
793.451223,0.111364,0.082596
793.484606,0.000000,0.032141
793.517988,-0.124242,0.049167
793.551369,0.093182,0.032201
793.584750,0.211364,0.149496
793.618131,0.070455,0.103671
793.651512,0.086364,0.127009
793.684893,0.320455,0.188112
793.718273,0.045455,0.039365
793.751653,0.047727,0.051363
793.785032,0.320455,0.249491
793.818411,0.090909,0.045455
793.851790,0.086364,0.264292
793.885169,0.259091,0.090539
793.918548,0.068182,0.113067
793.951926,0.186364,0.032381
793.985304,0.090909,0.147290
794.018681,0.113636,0.037689
794.052059,-0.138636,0.067831
794.085436,0.186364,0.032381
794.118812,0.093182,0.001968
794.152189,-0.072727,0.088840
794.185565,0.155303,0.049206
794.218941,0.155303,0.018844
794.252317,0.227273,0.223838
794.285692,-0.062121,0.018603
794.319067,0.020455,0.050858
794.352442,0.568182,0.291716
794.385816,2.143182,0.599314
794.419190,3.261364,0.545070
794.452564,2.422727,0.256194
794.485938,1.397727,0.336860
794.519311,0.211364,0.131086
794.552684,0.062121,0.018603
794.586057,-0.140909,0.051975
794.619429,0.136364,0.093707
794.652802,0.047727,0.023918
794.686173,0.279545,0.195597
794.719545,-0.168182,0.074239
794.752916,-0.445455,0.107853
794.786287,0.634091,0.580150
794.819658,-0.186364,0.003936
794.853029,0.000000,0.085038
794.886399,0.068182,0.117546
794.919769,-0.068182,0.059047
794.953138,0.093182,0.001968
794.986508,-0.341667,0.019911
795.019877,0.025000,0.059732
795.053245,-0.004545,0.067535
795.086614,-0.097727,0.069188
795.119982,0.138636,0.021651
795.153350,0.022727,0.019682
795.186718,0.022727,0.067228
795.220085,-0.025000,0.038753
795.253452,0.341667,0.037809
795.286819,0.070455,0.038081
795.320185,-0.068182,0.059047
795.353551,0.068182,0.037689
795.386917,0.045455,0.050820
795.420283,-0.186364,0.055809
795.453648,-0.062121,0.037137
795.487013,0.211364,0.041082
795.520378,0.109091,0.116065
795.553742,-0.047727,0.040064
795.587107,-0.062121,0.018603
795.620471,-0.118182,0.039886
795.653834,0.095455,0.057631
795.687197,0.181818,0.160706
795.720560,-0.097727,0.088804
795.753923,0.068182,0.117546
795.787286,0.329545,0.098248
795.820648,0.217424,0.019117
795.854010,-0.186364,0.032381
795.887371,0.155303,0.112924
795.920733,0.124242,0.049167
795.954094,0.090909,0.032141
795.987454,0.070455,0.074715
796.020815,0.086364,0.088695
796.054175,0.297727,0.102418
796.087535,0.211364,0.041082
796.120894,0.022727,0.037689
796.154254,0.155303,0.066988
796.187613,0.434091,0.128580
796.220971,1.400000,0.574564
796.254330,2.165909,0.602580
796.287688,4.611364,0.637299
796.321046,10.150000,0.829552
796.354403,6.336364,0.553296
796.387761,3.106061,0.269871
796.421118,0.527273,0.250289
796.454474,0.372727,0.200876
796.487831,0.686364,0.436476
796.521187,-0.062121,0.037137
796.554543,0.184091,0.030555
796.587898,0.018182,0.070711
796.621254,0.254545,0.086483
796.654609,-0.231818,0.049948
796.687963,0.111364,0.068963
796.721318,-0.304545,0.042336
796.754672,-0.581818,0.037483
796.788026,0.320455,0.144649
796.821379,0.206818,0.323421
796.854732,0.279545,0.064553
796.888085,0.113636,0.074516
796.921438,-0.062121,0.018603
796.954790,0.000000,0.032141
796.988142,0.177273,0.115059
797.021494,0.138636,0.067831
797.054846,0.038636,0.177749
797.088197,0.031061,0.074230
797.121548,0.020455,0.081968
797.154899,0.031061,0.049101
797.188249,0.390909,0.175869
797.221599,0.295455,0.168166
797.254949,0.300000,0.056954
797.288298,0.343182,0.102165
797.321648,-0.031061,0.080890
797.354996,-0.186364,0.032381
797.388345,0.248485,0.067113
797.421693,0.136364,0.050820
797.455041,0.525000,0.322861
797.488389,0.062121,0.018603
797.521737,0.295455,0.182880
797.555084,-0.075000,0.072469
797.588431,-0.248485,0.019285
797.621777,-0.031061,0.049101
797.655124,-0.138636,0.021651
797.688470,0.272727,0.115887
797.721815,0.477273,0.263822
797.755161,-0.022727,0.049533
797.788506,0.206818,0.117012
797.821851,0.000000,0.000000
797.855196,0.163636,0.081565
797.888540,-0.002273,0.033767
797.921884,-0.184091,0.054770
797.955228,0.155303,0.037258
797.988571,0.225000,0.172649
798.021914,0.161364,0.036699
798.055257,-0.379545,0.148281
798.088599,0.486364,0.044710
798.121942,0.665909,0.185011
798.155284,3.172727,0.543044
798.188625,8.634848,0.641646
798.221967,11.652273,1.198520
798.255308,8.163636,0.771684
798.288649,2.675000,0.733414
798.321989,0.684091,0.215259
798.355329,0.186364,0.085129
798.388669,-0.029545,0.193472
798.422009,0.200000,0.148129
798.455348,0.063636,0.084672
798.488687,-0.093182,0.032201
798.522026,0.347727,0.116703
798.555365,-0.031061,0.049101
798.588703,-0.070455,0.074715
798.622041,0.155303,0.037258
798.655378,0.406818,0.326283
798.688716,0.343182,0.140482
798.722053,0.502273,0.259238
798.755389,0.479545,0.128379
798.788726,-0.047727,0.023918
798.822062,-0.217424,0.019117
798.855398,0.161364,0.086863
798.888733,0.256818,0.022355
798.922069,0.155303,0.066988
798.955404,0.161364,0.098037
798.988738,0.184091,0.044347
799.022073,0.206818,0.179686
799.055407,0.090909,0.106600
799.088741,0.136364,0.050820
799.122074,0.543182,0.264465
799.155408,0.388636,0.106860
799.188741,0.136364,0.122390
799.222073,-0.025000,0.087751
799.255406,0.065909,0.068588
799.288738,0.470455,0.252229
799.322069,0.247727,0.139189
799.355401,-0.186364,0.064403
799.388732,-0.186364,0.032381
799.422063,0.500000,0.254099
799.455394,-0.002273,0.033767
799.488724,-0.062121,0.018603
799.522054,0.047727,0.159265
799.555384,0.372727,0.056224
799.588713,0.209091,0.103353
799.622042,-0.381818,0.171406
799.655371,-0.022727,0.037689
799.688700,-0.279545,0.167115
799.722028,0.345455,0.164015
799.755356,0.000000,0.000000
799.788684,0.124242,0.037206
799.822011,-0.347727,0.086147
799.855338,-0.062121,0.018603
799.888665,0.184091,0.071175
799.921992,-0.161364,0.098037
799.955318,0.138636,0.075060
799.988644,0.231818,0.148738
800.021969,0.838636,0.148351
800.055295,5.150000,0.835755
800.088620,15.596970,1.408306
800.121945,27.643939,0.751977
800.155269,25.811364,0.650043
800.188593,9.690909,0.726960
800.221917,2.209091,0.414285
800.255241,0.254545,0.179646
800.288564,0.313636,0.217078
800.321887,0.795455,0.662900
800.355210,-0.186364,0.032381
800.388532,0.031061,0.018568
800.421854,0.227273,0.331694
800.455176,-0.072727,0.061322
800.488498,0.279545,0.055982
800.521819,0.372727,0.251154
800.555140,-0.434848,0.038233
800.588461,0.231818,0.214204
800.621781,-0.168182,0.087049
800.655101,-0.155303,0.080953
800.688421,-0.050000,0.312969
800.721740,0.124242,0.074273
800.755060,0.022727,0.019682
800.788379,-0.027273,0.053203
800.821697,0.338636,0.202907
800.855015,0.115909,0.103422
800.888334,0.018182,0.089995
800.921651,0.062121,0.066920
800.954969,-0.188636,0.049101
800.988286,0.248485,0.019285
801.021603,0.211364,0.194537
801.054919,0.000000,0.064282
801.088235,0.559091,0.167428
801.121551,0.213636,0.140597
801.154867,0.111364,0.114107
801.188183,0.062121,0.049114
801.221498,0.115909,0.019117
801.254812,0.234091,0.052654
801.288127,0.159091,0.113067
801.321441,0.184091,0.084451
801.354755,0.217424,0.098300
801.388069,0.420455,0.105841
801.421382,-0.231818,0.020706
801.454695,0.275000,0.264661
801.488008,0.124242,0.080930
801.521320,0.062121,0.037137
801.554632,0.070455,0.020423
801.587944,0.065909,0.068588
801.621256,0.465909,0.065031
801.654567,0.275000,0.095367
801.687878,0.124242,0.066959
801.721189,0.031061,0.018568
801.754499,-0.031061,0.049101
801.787809,0.231818,0.074793
801.821119,0.200000,0.133454
801.854428,0.409091,0.228406
801.887737,0.434848,0.038233
801.921046,1.372727,0.324069
801.954355,2.925000,0.403220
801.987663,10.263636,0.842235
802.020971,31.225758,2.697847
802.054279,48.634091,1.728470
802.087586,24.747727,2.123244
802.120894,6.275000,0.756449
802.154200,1.395455,0.549544
802.187507,0.834091,0.156748
802.220813,0.250000,0.141476
802.254119,0.393182,0.160815
802.287425,0.131818,0.255548
802.320730,0.155303,0.098248
802.354035,-0.468182,0.089391
802.387340,0.106818,0.123163
802.420644,0.047727,0.040064
802.453949,-0.004545,0.158815
802.487252,0.465909,0.170360
802.520556,0.181818,0.157459
802.553859,0.350000,0.177607
802.587162,0.065909,0.082282
802.620465,0.159091,0.049533
802.653767,0.156818,0.244048
802.687069,0.452273,0.273868
802.720371,0.325000,0.148629
802.753673,0.186364,0.032381
802.786974,0.124242,0.129924
802.820275,0.155303,0.037258
802.853576,0.310606,0.158685
802.886876,-0.068182,0.037689
802.920176,0.031061,0.018568
802.953476,0.002273,0.056625
802.986775,0.372727,0.056224
803.020074,0.736364,0.155678
803.053373,0.045455,0.050820
803.086672,0.045455,0.068182
803.119970,0.138636,0.098824
803.153268,0.300000,0.133066
803.186565,0.124242,0.074273
803.219863,0.063636,0.192687
803.253160,0.327273,0.189497
803.286457,0.118182,0.060473
803.319753,0.248485,0.151984
803.353049,-0.248485,0.067113
803.386345,0.217424,0.074369
803.419641,0.186364,0.096504
803.452936,0.415909,0.116259
803.486231,0.465909,0.096925
803.519525,0.186364,0.167057
803.552820,-0.279545,0.032679
803.586114,0.504545,0.100695
803.619408,0.784091,0.464486
803.652701,0.325000,0.093064
803.685994,0.022727,0.074516
803.719287,0.229545,0.145006
803.752580,0.062121,0.037137
803.785872,0.277273,0.083906
803.819164,0.536364,0.131190
803.852456,2.079545,0.294743
803.885747,8.075758,0.979912
803.919038,29.143182,2.245377
803.952329,59.902273,4.026556
803.985620,69.171970,2.333019
804.018910,29.911364,2.480378
804.052200,5.466667,0.479152
804.085489,1.847727,0.580800
804.118779,0.554545,0.158310
804.152068,0.450000,0.271617
804.185357,0.134091,0.149910
804.218645,0.093182,0.055705
804.251933,0.343182,0.140482
804.285221,0.327273,0.053397
804.318508,0.663636,0.259808
804.351796,0.465909,0.085605
804.385083,0.372727,0.064763
804.418369,0.222727,0.148738
804.451656,0.209091,0.133840
804.484942,0.022727,0.081153
804.518227,0.313636,0.314286
804.551513,0.113636,0.074516
804.584798,-0.031061,0.049101
804.618083,0.070455,0.049832
804.651367,0.527273,0.244019
804.684652,0.393182,0.147408
804.717936,-0.211364,0.069188
804.751219,0.095455,0.107637
804.784503,-0.248485,0.049376
804.817786,0.422727,0.138375
804.851068,0.209091,0.018741
804.884351,0.275000,0.062686
804.917633,0.459091,0.098622
804.950915,0.184091,0.078096
804.984196,0.206818,0.057977
805.017478,0.520455,0.276590
805.050759,0.415909,0.173336
805.084039,0.111364,0.088629
805.117320,0.450000,0.295306
805.150600,0.118182,0.088257
805.183879,-0.186364,0.032381
805.217159,-0.075000,0.072469
805.250438,0.310606,0.019682
805.283717,-0.217424,0.019117
805.316995,0.409091,0.174571
805.350274,0.275000,0.083837
805.383552,0.463636,0.082947
805.416829,0.031061,0.037119
805.450107,0.341667,0.148629
805.483384,-0.093182,0.055705
805.516660,-0.031061,0.018568
805.549937,0.643182,0.181345
805.583213,0.468182,0.105308
805.616489,0.047727,0.104416
805.649764,0.643182,0.226895
805.683040,0.488636,0.049206
805.716315,0.063636,0.111062
805.749589,0.454545,0.163889
805.782864,3.300000,0.816121
805.816138,13.133333,1.627577
805.849411,63.593182,3.719623
805.882685,147.088636,6.979827
805.915958,184.251515,5.548831
805.949231,81.767045,1.816412
805.982504,11.787500,0.585869
806.015776,2.784091,0.872765
806.049048,1.109091,0.318247
806.082319,0.175000,0.188879
806.115591,0.163636,0.093376
806.148862,-0.261364,0.068888
806.182133,0.159091,0.121861
806.215403,0.315909,0.205688
806.248673,0.115909,0.074369
806.281943,0.504545,0.491472
806.315213,0.093182,0.032201
806.348482,0.310606,0.145081
806.381751,-0.025000,0.067831
806.415019,-0.310606,0.019682
806.448288,0.347727,0.034970
806.481556,0.155303,0.098248
806.514823,0.186364,0.003936
806.548091,0.403788,0.049832
806.581358,0.588636,0.323421
806.614625,0.184091,0.044347
806.647891,0.581818,0.112998
806.681158,0.217424,0.092897
806.714424,0.062121,0.092793
806.747689,0.300000,0.056954
806.780955,0.570455,0.338406
806.814220,0.047727,0.162476
806.847484,0.031061,0.049101
806.880749,0.484091,0.062106
806.914013,0.115909,0.019117
806.947277,0.015909,0.188469
806.980540,-0.027273,0.083443
807.013803,0.140909,0.099664
807.047066,0.320455,0.188112
807.080329,0.502273,0.181971
807.113591,0.248485,0.067113
807.146853,0.300000,0.185028
807.180115,-0.027273,0.069976
807.213376,0.234091,0.083095
807.246637,-0.031061,0.049101
807.279898,0.297727,0.157963
807.313159,0.529545,0.165718
807.346419,-0.009091,0.226499
807.379679,-0.186364,0.055809
807.412938,0.310606,0.218879
807.446198,0.734091,0.300712
807.479457,0.400000,0.156009
807.512715,0.138636,0.067831
807.545974,0.765909,0.377141
807.579232,0.325000,0.165094
807.612490,0.217424,0.081017
807.645747,1.149242,0.290880
807.679004,0.581818,0.185642
807.712261,1.652273,0.279247
807.745518,11.204545,1.227851
807.778774,48.944697,4.427401
807.812030,196.938636,6.515773
807.845285,340.775000,8.235860
807.878541,253.858333,10.702244
807.911796,64.854545,1.772599
807.945051,10.009091,0.692537
807.978305,1.968182,0.106285
808.011559,-0.279545,0.055982
808.044813,0.234091,0.076627
808.078066,0.403788,0.074715
808.111320,0.520455,0.213331
808.144573,0.379545,0.304212
808.177825,1.025000,0.365554
808.211078,0.047727,0.075745
808.244330,0.088636,0.125325
808.277581,0.465909,0.033614
808.310833,0.781818,0.328973
808.344084,0.413636,0.195547
808.377335,0.165909,0.119329
808.410585,0.586364,0.215646
808.443835,0.062121,0.066920
808.477085,-0.138636,0.038753
808.510335,-0.403788,0.049832
808.543584,0.248485,0.151984
808.576833,0.022727,0.133975
808.610082,0.318182,0.104149
808.643330,-0.372727,0.064763
808.676578,0.022727,0.074516
808.709826,0.217424,0.103422
808.743073,0.211364,0.088804
808.776320,0.124242,0.066959
808.809567,0.320455,0.188112
808.842814,0.745455,0.193489
808.876060,0.062121,0.074239
808.909306,0.529545,0.224031
808.942552,0.465909,0.009841
808.975797,0.388636,0.147478
809.009042,0.204545,0.232608
809.042287,0.140909,0.104718
809.075531,-0.095455,0.107637
809.108775,0.147727,0.359125
809.142019,0.431818,0.180034
809.175262,0.272727,0.266985
809.208506,-0.022727,0.049533
809.241748,0.154545,0.133066
809.274991,0.620455,0.158387
809.308233,0.095455,0.086334
809.341475,0.372727,0.128806
809.374717,0.440909,0.011809
809.407958,1.118182,0.060473
809.441199,0.217424,0.133893
809.474440,0.331818,0.216888
809.507680,0.472727,0.205402
809.540921,0.825000,0.447945
809.574160,0.776515,0.325554
809.607400,0.754545,0.201082
809.640639,1.345455,0.512085
809.673878,3.761364,0.518106
809.707117,19.197727,0.987831
809.740355,72.947727,0.934383
809.773593,268.806818,14.968393
809.806831,402.418182,10.382357
809.840068,272.897727,8.558084
809.873305,51.902273,2.880261
809.906542,7.227273,0.806418
809.939778,2.546970,0.407997
809.973015,1.184091,0.464553
810.006250,0.529545,0.177749
810.039486,0.568182,0.193849
810.072721,2.138636,0.708168
810.105956,0.440909,0.195864
810.139191,0.831818,0.087049
810.172425,0.338636,0.181402
810.205659,0.556818,0.197070
810.238893,0.229545,0.092897
810.272126,0.763636,0.255437
810.305359,0.379545,0.286731
810.338592,1.553030,0.133975
810.371825,0.713636,0.308179
810.405057,0.754545,0.337314
810.438289,0.827273,0.220490
810.471520,0.325000,0.067295
810.504751,0.409091,0.204545
810.537982,0.045455,0.068182
810.571213,0.043182,0.076424
810.604443,0.568182,0.368399
810.637673,0.341667,0.182905
810.670903,0.456818,0.168868
810.704133,0.484091,0.076963
810.737362,0.343182,0.323181
810.770591,0.279545,0.242733
810.803819,0.043182,0.204933
810.837047,0.584091,0.182056
810.870275,0.272727,0.078730
810.903503,0.124242,0.037206
810.936730,-0.045455,0.022727
810.969957,0.545455,0.231774
811.003184,0.247727,0.178243
811.036410,0.621212,0.099066
811.069636,0.217424,0.103422
811.102862,1.002273,0.265051
811.136087,0.093182,0.115904
811.169312,0.336364,0.309191
811.202537,-0.186364,0.032381
811.235762,0.631818,0.356195
811.268986,1.004545,0.518476
811.302210,0.247727,0.295898
811.335433,0.652273,0.065742
811.368656,0.345455,0.120433
811.401879,0.869697,0.260443
811.435102,0.227273,0.235093
811.468324,0.590152,0.188742
811.501546,0.062121,0.365528
811.534768,1.490909,0.276414
811.567990,0.434848,0.337735
811.601211,1.180303,0.084642
811.634432,3.695455,0.469234
811.667652,20.086364,2.503967
811.700872,80.084091,3.326520
811.734092,219.465909,2.084376
811.767312,317.600000,9.964708
811.800531,213.463636,7.193766
811.833750,34.850000,1.767631
811.866969,5.320455,1.321060
811.900187,1.087121,0.260807
811.933405,0.086364,0.127009
811.966623,0.463636,0.076466
811.999840,0.313636,0.284980
812.033057,0.000000,0.210764
812.066274,0.496970,0.388949
812.099490,0.459091,0.398104
812.132707,0.248485,0.019285
812.165923,1.293182,0.402477
812.199138,0.463636,0.149586
812.232353,-0.186364,0.055809
812.265568,0.297727,0.112051
812.298783,0.156818,0.162794
812.331997,0.159091,0.171210
812.365211,0.709091,0.480229
812.398425,0.155303,0.112924
812.431638,0.062121,0.182767
812.464851,0.113636,0.087286
812.498064,0.111364,0.082596
812.531277,0.093182,0.096444
812.564489,-0.062121,0.018603
812.597701,0.302273,0.161775
812.630912,-0.062121,0.037137
812.664123,0.124242,0.049167
