#{
#    "background_file": "Backgrounds\\\\bg_785.995nm_13bin_219st_244en_10.0s_110g_4x_13_seq.txt",
#    "ccd_image_settings": [
#        1,
#        13,
#        1,
#        1600,
#        219,
#        244
#    ],
#    "ccd_temperature": "-87",
#    "cdRatios": {
#        "mean": 0.9416847625447754,
#        "std": 0.012162156534296288
#    },
#    "center_lambda": 786.0,
#    "comments": "",
#    "dark_region": 10.538797052171525,
#    "date": "10/22/20 17:35:59PM",
#    "eff_field": 1.5,
#    "exposure": 10.0,
#    "fel_lambda": "15.0",
#    "fel_pol": "H",
#    "fel_pulses": 43,
#    "fel_pyro_cal": "0.012",
#    "fel_reprate": "1.07",
#    "fel_transmission": "1.0",
#    "fel_transmission_fits": {
#        "A": 1.0,
#        "C": 0.0,
#        "Mu": 0.0
#    },
#    "fieldInt": {
#        "mean": 5006.786382575758,
#        "std": 294.62424309305254
#    },
#    "fieldStrength": {
#        "mean": 32.44455492424243,
#        "std": 1.0054452283584505
#    },
#    "fpTime": {
#        "mean": 1.1232271987638436,
#        "std": 0.0646484889389756
#    },
#    "gain": 110,
#    "grating": 3,
#    "images_in_sequence": [
#        "hsg_820nm_c123_a90_HAna489.txt",
#        "hsg_820nm_c123_a90_HAna490.txt",
#        "hsg_820nm_c123_a90_HAna491.txt",
#        "hsg_820nm_c123_a90_HAna492.txt"
#    ],
#    "nir_lambda": "819.98",
#    "nir_pola": "90",
#    "nir_polg": "0",
#    "nir_power": "100.0",
#    "pulseEnergies": {
#        "mean": 1.5367140151515153,
#        "std": 0.10117117848606047
#    },
#    "pyroVoltage": {
#        "mean": 0.13612663238684192,
#        "std": 0.010092643209592748
#    },
#    "rotatorAngle": 157.4999963378817,
#    "sample_Temp": "55",
#    "sample_name": "L001218.C1",
#    "series": "820_Fan",
#    "slits": "60",
#    "spec_step": "",
#    "window_trans": 0.92,
#    "y_max": 2,
#    "y_min": 1
#}
#
#
#
#
#
#
#
#
#
#
#
#
#
#
#
#
#
#
#
#
#
#
#
#
#
#
Wavelength,Signal,error
nm,arb. u.,arb.u.
Wavelength,820_Fan,error
759.194366,0.022727,0.037689
759.228015,-0.000000,0.147290
759.261663,0.420455,0.084083
759.295311,0.438636,0.240273
759.328959,-0.047727,0.023918
759.362607,0.040909,0.071978
759.396254,-0.000000,0.085038
759.429901,-0.155303,0.018844
759.463548,0.045455,0.022727
759.497194,-0.341667,0.019911
759.530841,0.186364,0.085129
759.564487,-0.025000,0.038753
759.598133,0.395455,0.218785
759.631779,0.572727,0.386417
759.665424,0.065909,0.122617
759.699069,-0.050000,0.053926
759.732714,-0.025000,0.038753
759.766359,-0.006818,0.143502
759.800003,0.315909,0.132341
759.833648,0.018182,0.070711
759.867292,-0.306818,0.058773
759.900935,0.136364,0.171587
759.934579,0.440909,0.167428
759.968222,0.131818,0.137176
760.001865,-0.093182,0.055705
760.035508,0.322727,0.182428
760.069151,0.000000,0.055670
760.102793,0.206818,0.125531
760.136435,0.088636,0.057530
760.170077,0.000000,0.055670
760.203718,-0.068182,0.037689
760.237360,-0.465909,0.111775
760.271001,0.113636,0.037689
760.304642,0.188636,0.125860
760.338283,-0.188636,0.037119
760.371923,-0.027273,0.089420
760.405563,0.186364,0.032381
760.439203,0.070455,0.049832
760.472843,0.093182,0.001968
760.506482,-0.025000,0.059732
760.540122,0.020455,0.060163
760.573761,0.711364,0.321386
760.607399,0.062121,0.018603
760.641038,0.111364,0.088629
760.674676,0.161364,0.017714
760.708314,0.297727,0.176495
760.741952,0.068182,0.037689
760.775589,0.134091,0.224422
760.809227,-0.072727,0.104841
760.842864,0.070455,0.020423
760.876501,-0.261364,0.094222
760.910137,0.204545,0.087286
760.943774,0.234091,0.114469
760.977410,0.109091,0.170197
761.011046,0.275000,0.095367
761.044681,0.186364,0.085129
761.078317,0.384091,0.217764
761.111952,-0.100000,0.170863
761.145587,0.093182,0.096444
761.179221,0.063636,0.136136
761.212856,-0.243182,0.212798
761.246490,0.134091,0.100380
761.280124,-0.031061,0.018568
761.313758,0.115909,0.074369
761.347391,0.138636,0.075060
761.381024,-0.168182,0.087049
761.414657,0.184091,0.132146
761.448290,0.281818,0.075103
761.481923,0.277273,0.053926
761.515555,0.109091,0.187524
761.549187,0.197727,0.314892
761.582819,-0.031061,0.074230
761.616450,-0.193182,0.142273
761.650082,-0.234091,0.026577
761.683713,0.231818,0.098622
761.717344,-0.327273,0.028020
761.750974,-0.213636,0.085854
761.784605,-0.097727,0.171989
761.818235,0.159091,0.137777
761.851865,-0.115909,0.019117
761.885494,-0.377273,0.092793
761.919124,0.413636,0.101716
761.952753,0.138636,0.038753
761.986382,0.124242,0.074273
762.020010,0.124242,0.080930
762.053639,0.543182,0.476410
762.087267,0.065909,0.068588
762.120895,0.109091,0.091136
762.154523,-0.022727,0.081153
762.188150,0.186364,0.115954
762.221777,0.204545,0.067228
762.255404,0.155303,0.037258
762.289031,0.020455,0.039414
762.322658,0.368182,0.237530
762.356284,0.295455,0.257882
762.389910,-0.145455,0.142150
762.423536,-0.022727,0.019682
762.457161,-0.031818,0.119982
762.490786,0.109091,0.091136
762.524411,0.018182,0.070711
762.558036,0.047727,0.040064
762.591661,0.177273,0.172533
762.625285,-0.496970,0.067726
762.658909,-0.045455,0.068182
762.692533,0.384091,0.244577
762.726157,-0.027273,0.062158
762.759780,0.034091,0.263761
762.793403,0.000000,0.055670
762.827026,0.086364,0.189101
762.860649,0.161364,0.058421
762.894271,0.061364,0.134586
762.927893,0.134091,0.105400
762.961515,0.161364,0.086863
762.995137,0.250000,0.108402
763.028758,0.440909,0.147762
763.062379,-0.140909,0.051975
763.096000,0.113636,0.098412
763.129621,0.547727,0.290169
763.163241,0.370455,0.242093
763.196862,0.225000,0.200345
763.230481,0.254545,0.035791
763.264101,0.155303,0.037258
763.297721,-0.093182,0.085060
763.331340,0.022727,0.037689
763.364959,0.843182,0.279562
763.398578,-0.445455,0.158310
763.432196,-0.143182,0.055519
763.465814,-0.004545,0.211779
763.499432,0.329545,0.121729
763.533050,0.227273,0.075378
763.566668,0.062121,0.018603
763.600285,-0.027273,0.069976
763.633902,0.134091,0.178243
763.667519,0.322727,0.092123
763.701135,0.131818,0.137176
763.734752,-0.120455,0.055052
763.768368,0.209091,0.049167
763.801984,0.000000,0.085038
763.835599,0.031061,0.037119
763.869215,0.062121,0.018603
763.902830,0.031061,0.018568
763.936444,0.188636,0.058685
763.970059,-0.125000,0.137660
764.003673,0.062121,0.080898
764.037288,0.310606,0.049533
764.070901,-0.397727,0.029524
764.104515,0.131818,0.154863
764.138128,0.045455,0.022727
764.171742,0.359091,0.276891
764.205354,-0.118182,0.068484
764.238967,0.134091,0.077097
764.272580,0.134091,0.200087
764.306192,0.234091,0.041706
764.339804,0.279545,0.055982
764.373415,0.336364,0.379675
764.407027,0.043182,0.052359
764.440638,0.015909,0.103571
764.474249,0.093182,0.055705
764.507860,-0.395455,0.066920
764.541470,0.209091,0.018741
764.575080,-0.093182,0.001968
764.608690,-0.022727,0.037689
764.642300,-0.395455,0.018603
764.675909,-0.070455,0.067449
764.709519,0.277273,0.100695
764.743128,-0.000000,0.085038
764.776736,0.115909,0.049311
764.810345,-0.022727,0.037689
764.843953,-0.165909,0.100534
764.877561,-0.155303,0.066988
764.911169,0.181818,0.071870
764.944776,-0.047727,0.051363
764.978384,-0.004545,0.059396
765.011991,0.047727,0.023918
765.045598,0.231818,0.074793
765.079204,0.062121,0.018603
765.112810,0.000000,0.055670
765.146416,-0.068182,0.059047
765.180022,0.318182,0.118094
765.213628,-0.213636,0.072834
765.247233,-0.062121,0.018603
765.280838,0.413636,0.195547
765.314443,0.386364,0.171210
765.348048,-0.165909,0.053626
765.381652,-0.047727,0.040064
765.415256,0.279545,0.055982
765.448860,0.088636,0.086266
765.482463,-0.190909,0.077806
765.516067,0.088636,0.057530
765.549670,0.484091,0.320984
765.583273,0.161364,0.066679
765.616875,-0.122727,0.088227
765.650478,-0.193182,0.145858
765.684080,0.088636,0.185206
765.717682,-0.234091,0.083095
765.751283,-0.145455,0.104447
765.784885,0.025000,0.067831
765.818486,0.093182,0.032201
765.852087,-0.025000,0.038753
765.885687,0.159091,0.093015
765.919288,0.070455,0.020423
765.952888,0.062121,0.037137
765.986488,0.248485,0.067113
766.020087,-0.217424,0.037397
766.053687,-0.025000,0.038753
766.087286,0.217424,0.074369
766.120885,0.229545,0.145006
766.154484,0.155303,0.112924
766.188082,-0.050000,0.053926
766.221680,0.063636,0.111062
766.255278,0.040909,0.208336
766.288876,0.068182,0.019682
766.322473,0.068182,0.037689
766.356070,0.231818,0.122031
766.389667,-0.068182,0.059047
766.423264,-0.077273,0.233406
766.456860,0.161364,0.036699
766.490457,0.040909,0.071978
766.524053,0.188636,0.103322
766.557648,0.248485,0.092932
766.591244,0.118182,0.068484
766.624839,-0.231818,0.067535
766.658434,0.118182,0.039886
766.692029,0.327273,0.100412
766.725623,0.211364,0.149496
766.759217,-0.075000,0.072469
766.792811,0.106818,0.292262
766.826405,-0.209091,0.129924
766.859999,0.436364,0.115171
766.893592,0.429545,0.274528
766.927185,0.000000,0.064282
766.960777,-0.248485,0.049376
766.994370,0.477273,0.218879
767.027962,0.515909,0.186679
767.061554,-0.093182,0.064313
767.095146,0.390909,0.178781
767.128737,-0.161364,0.036699
767.162329,-0.056818,0.153619
767.195920,0.038636,0.156088
767.229510,0.000000,0.064282
767.263101,-0.031061,0.129899
767.296691,0.118182,0.060473
767.330281,-0.209091,0.018741
767.363871,-0.104545,0.208633
767.397460,0.320455,0.080377
767.431050,0.690909,0.243001
767.464639,0.111364,0.082596
767.498227,0.186364,0.055809
767.531816,0.138636,0.050347
767.565404,-0.352273,0.091440
767.598992,0.000000,0.032141
767.632580,0.368182,0.159464
767.666168,0.045455,0.104149
767.699755,0.093182,0.115904
767.733342,0.047727,0.040064
767.766929,0.070455,0.067449
767.800515,-0.062121,0.049114
767.834101,0.683333,0.358681
767.867687,-0.068182,0.037689
767.901273,-0.043182,0.094551
767.934859,-0.528030,0.050347
767.968444,0.020455,0.088044
768.002029,0.234091,0.052654
768.035614,0.218182,0.273030
768.069198,0.000000,0.032141
768.102783,-0.745455,0.015746
768.136367,-0.025000,0.038753
768.169950,-0.231818,0.020706
768.203534,0.256818,0.039151
768.237117,0.136364,0.050820
768.270700,0.124242,0.018741
768.304283,0.184091,0.030555
768.337866,-0.163636,0.050206
768.371448,-0.093182,0.055705
768.405030,-0.279545,0.005905
768.438612,0.045455,0.050820
768.472193,0.295455,0.133975
768.505775,0.111364,0.068963
768.539356,0.093182,0.032201
768.572936,-0.052273,0.086744
768.606517,-0.138636,0.050347
768.640097,0.065909,0.094003
768.673677,-0.093182,0.055705
768.707257,0.340909,0.273437
768.740836,0.229545,0.049311
768.774416,0.159091,0.049533
768.807995,-0.002273,0.147653
768.841574,0.159091,0.059047
768.875152,0.341667,0.019911
768.908730,-0.124242,0.049167
768.942308,0.161364,0.196308
768.975886,-0.161364,0.036699
769.009464,0.181818,0.085038
769.043041,-0.029545,0.092228
769.076618,0.234091,0.052654
769.110195,0.156818,0.127166
769.143771,0.093182,0.064313
769.177348,-0.062121,0.018603
769.210924,-0.124242,0.049167
769.244499,0.297727,0.151282
769.278075,0.138636,0.021651
769.311650,0.154545,0.173503
769.345225,0.206818,0.057977
769.378800,0.252273,0.065899
769.412375,0.115909,0.037397
769.445949,-0.372727,0.064763
769.479523,-0.045455,0.050820
769.513097,0.204545,0.067228
769.546670,0.356818,0.353749
769.580243,0.084091,0.193472
769.613816,0.113636,0.049533
769.647389,0.279545,0.347711
769.680962,0.159091,0.108402
769.714534,-0.190909,0.077806
769.748106,0.388636,0.257238
769.781678,0.643182,0.319532
769.815249,-0.031061,0.018568
769.848820,-0.155303,0.133855
769.882391,0.248485,0.037483
769.915962,0.163636,0.050206
769.949533,-0.140909,0.051975
769.983103,0.068182,0.037689
770.016673,-0.029545,0.092228
770.050243,0.295455,0.185683
770.083812,-0.259091,0.078302
770.117381,0.315909,0.184508
770.150950,-0.000000,0.085038
770.184519,-0.050000,0.123712
770.218088,0.020455,0.075404
770.251656,-0.118182,0.039886
770.285224,0.272727,0.195507
770.318791,-0.047727,0.051363
770.352359,0.065909,0.051363
770.385926,0.062121,0.018603
770.419493,0.322727,0.065987
770.453060,-0.350000,0.099248
770.486626,0.124242,0.112907
770.520192,0.272727,0.115887
770.553758,0.315909,0.215499
770.587324,0.343182,0.195781
770.620890,0.020455,0.039414
770.654455,0.372727,0.056224
770.688020,0.372727,0.111618
770.721584,0.206818,0.154992
770.755149,0.181818,0.071870
770.788713,0.031061,0.018568
770.822277,0.022727,0.049533
770.855841,-0.327273,0.053397
770.889404,-0.022727,0.019682
770.922967,0.093182,0.064313
770.956530,0.124242,0.037206
770.990093,-0.115909,0.037397
771.023655,-0.062121,0.049114
771.057217,0.234091,0.069560
771.090779,0.115909,0.067065
771.124341,-0.377273,0.117370
771.157902,0.140909,0.025206
771.191463,0.343182,0.195781
771.225024,0.062121,0.049114
771.258585,0.136364,0.174571
771.292145,0.184091,0.054770
771.325705,-0.006818,0.106279
771.359265,0.025000,0.038753
771.392825,0.093182,0.055705
771.426384,0.093182,0.055705
771.459943,0.195455,0.319696
771.493502,0.154545,0.120861
771.527061,0.093182,0.032201
771.560619,-0.234091,0.052654
771.594177,0.031061,0.018568
771.627735,-0.020455,0.104168
771.661293,0.484091,0.186679
771.694850,-0.211364,0.118678
771.728407,0.045455,0.081944
771.761964,-0.124242,0.018741
771.795521,0.093182,0.032201
771.829077,0.000000,0.000000
771.862633,-0.095455,0.047835
771.896189,0.000000,0.115887
771.929744,0.000000,0.064282
771.963300,0.111364,0.088629
771.996855,0.065909,0.122617
772.030409,-0.025000,0.038753
772.063964,0.310606,0.037689
772.097518,-0.027273,0.083443
772.131072,0.109091,0.176162
772.164626,0.156818,0.082908
772.198180,0.320455,0.080377
772.231733,0.338636,0.279931
772.265286,-0.138636,0.075060
772.298839,-0.170455,0.107054
772.332391,0.088636,0.057530
772.365943,0.136364,0.039365
772.399495,0.134091,0.105400
772.433047,0.159091,0.121861
772.466598,0.115909,0.049311
772.500150,0.436364,0.288985
772.533701,0.124242,0.037206
772.567251,0.086364,0.212266
772.600802,0.204545,0.087286
772.634352,0.111364,0.082596
772.667902,0.209091,0.103353
772.701452,-0.140909,0.051975
772.735001,0.204545,0.257882
772.768550,0.020455,0.075404
772.802099,-0.100000,0.092375
772.835648,0.093182,0.001968
772.869196,0.209091,0.103353
772.902744,0.136364,0.226134
772.936292,0.209091,0.103353
772.969840,0.209091,0.037206
773.003387,0.161364,0.098037
773.036934,0.045455,0.050820
773.070481,0.115909,0.067065
773.104028,0.131818,0.102726
773.137574,0.140909,0.051975
773.171120,0.197727,0.313247
773.204666,0.062121,0.049114
773.238212,0.062121,0.037137
773.271757,-0.045455,0.104149
773.305302,0.234091,0.083095
773.338847,0.181818,0.055670
773.372391,0.163636,0.038569
773.405936,0.179545,0.225685
773.439480,0.000000,0.032141
773.473024,0.413636,0.198171
773.506567,0.217424,0.049311
773.540110,-0.022727,0.067228
773.573653,0.136364,0.145526
773.607196,0.341667,0.037809
773.640739,0.045455,0.022727
773.674281,-0.124242,0.049167
773.707823,0.161364,0.036699
773.741365,0.427273,0.254586
773.774906,0.002273,0.072612
773.808447,0.363636,0.238366
773.841988,0.320455,0.121346
773.875529,0.043182,0.052359
773.909070,-0.165909,0.062521
773.942610,0.275000,0.139375
773.976150,0.140909,0.040846
774.009689,0.093182,0.055705
774.043229,0.000000,0.280201
774.076768,0.227273,0.093707
774.110307,-0.068182,0.087286
774.143845,0.031061,0.049101
774.177384,0.522727,0.201685
774.210922,-0.020455,0.104168
774.244460,0.434848,0.098622
774.277997,0.409091,0.254099
774.311535,0.124242,0.049167
774.345072,-0.022727,0.049533
774.378609,-0.238636,0.127936
774.412145,0.040909,0.071978
774.445682,-0.062121,0.018603
774.479218,0.161364,0.141216
774.512754,0.184091,0.030555
774.546289,-0.248485,0.049376
774.579824,-0.072727,0.127110
774.613359,-0.050000,0.053926
774.646894,0.211364,0.069188
774.680429,0.000000,0.032141
774.713963,0.277273,0.043301
774.747497,-0.124242,0.018741
774.781031,0.372727,0.085401
774.814564,-0.186364,0.032381
774.848097,-0.075000,0.072469
774.881630,0.179545,0.117233
774.915163,0.043182,0.052359
774.948696,-0.050000,0.053926
774.982228,0.206818,0.035989
775.015760,0.025000,0.038753
775.049291,-0.070455,0.074715
775.082823,-0.093182,0.085060
775.116354,0.047727,0.040064
775.149885,0.022727,0.049533
775.183416,-0.259091,0.063758
775.216946,-0.213636,0.072834
775.250476,0.229545,0.145006
775.284006,-0.155303,0.018844
775.317535,-0.256818,0.050654
775.351065,0.031061,0.018568
775.384594,-0.248485,0.037483
775.418123,0.229545,0.117453
775.451651,-0.025000,0.067831
775.485180,-0.418182,0.019285
775.518708,-0.236364,0.073011
775.552235,-0.072727,0.041161
775.585763,-0.161364,0.036699
775.619290,0.093182,0.001968
775.652817,0.115909,0.049311
775.686344,0.788636,0.649168
775.719870,0.352273,0.120663
775.753397,-0.022727,0.074516
775.786923,0.131818,0.188006
775.820448,-0.163636,0.021320
775.853974,0.254545,0.086483
775.887499,0.300000,0.072869
775.921024,-0.002273,0.056625
775.954549,-0.279545,0.032679
775.988073,0.890909,0.318247
776.021597,0.106818,0.149668
776.055121,-0.188636,0.037119
776.088645,0.020455,0.075404
776.122168,-0.143182,0.071753
776.155691,0.231818,0.093237
776.189214,-0.138636,0.067831
776.222737,0.297727,0.085966
776.256259,-0.072727,0.127110
776.289781,0.161364,0.036699
776.323303,0.206818,0.057977
776.356824,-0.100000,0.092375
776.390346,0.109091,0.120433
776.423867,0.043182,0.052359
776.457387,-0.075000,0.182056
776.490908,0.248485,0.121798
776.524428,0.341667,0.148629
776.557948,-0.052273,0.121474
776.591468,0.236364,0.097277
776.624987,0.022727,0.074516
776.658506,0.031061,0.066910
776.692025,0.040909,0.106673
776.725544,-0.031818,0.153926
776.759062,0.297727,0.079732
776.792581,-0.062121,0.049114
776.826099,0.184091,0.106133
776.859616,0.209091,0.049167
776.893134,0.300000,0.034317
776.926651,0.248485,0.121798
776.960167,-0.145455,0.075788
776.993684,0.206818,0.048252
777.027200,0.070455,0.049832
777.060716,0.068182,0.037689
777.094232,0.068182,0.059047
777.127748,-0.050000,0.070528
777.161263,0.295455,0.204230
777.194778,-0.047727,0.023918
777.228293,0.527273,0.194554
777.261807,0.062121,0.066920
777.295322,0.047727,0.068588
777.328836,-0.310606,0.037689
777.362349,-0.095455,0.035428
777.395863,0.093182,0.001968
777.429376,0.043182,0.094551
777.462889,-0.022727,0.037689
777.496401,0.341667,0.182905
777.529914,0.040909,0.085129
777.563426,-0.050000,0.053926
777.596938,0.156818,0.082908
777.630449,0.275000,0.089787
777.663961,0.772727,0.540221
777.697472,0.227273,0.223838
777.730983,-0.070455,0.038081
777.764493,-0.093182,0.064313
777.798004,0.486364,0.153926
777.831514,0.063636,0.150550
777.865023,0.113636,0.196496
777.898533,0.236364,0.097277
777.932042,0.022727,0.019682
777.965551,0.386364,0.171210
777.999060,0.084091,0.218546
778.032568,0.068182,0.059047
778.066076,0.065909,0.060591
778.099584,-0.118182,0.039886
778.133092,0.204545,0.103528
778.166599,0.386364,0.209227
778.200107,0.090909,0.055670
778.233613,0.202273,0.135237
778.267120,-0.125000,0.121729
778.300626,0.509091,0.044998
778.334132,-0.248485,0.049376
778.367638,0.372727,0.085401
778.401144,0.134091,0.077097
778.434649,0.020455,0.050858
778.468154,0.134091,0.123456
778.501659,0.068182,0.059047
778.535163,0.465909,0.085605
778.568668,0.186364,0.032381
778.602172,-0.025000,0.067831
778.635675,-0.213636,0.140597
778.669179,-0.002273,0.102165
778.702682,0.318182,0.177506
778.736185,0.113636,0.037689
778.769688,0.429545,0.278265
778.803190,-0.047727,0.023918
778.836692,0.124242,0.018741
778.870194,-0.075000,0.085545
778.903696,0.115909,0.049311
778.937197,0.570455,0.217646
778.970698,0.575000,0.255990
779.004199,-0.068182,0.037689
779.037699,-0.093182,0.085060
779.071200,0.093182,0.055705
779.104700,0.045455,0.039365
779.138199,0.061364,0.118242
779.171699,0.043182,0.052359
779.205198,0.206818,0.048252
779.238697,0.031061,0.018568
779.272196,0.456818,0.288563
779.305694,-0.031061,0.018568
779.339192,-0.068182,0.059047
779.372690,0.043182,0.052359
779.406188,0.111364,0.068963
779.439685,0.043182,0.076424
779.473182,0.061364,0.152573
779.506679,0.310606,0.074516
779.540176,0.138636,0.122195
779.573672,0.106818,0.311096
779.607168,0.418182,0.121798
779.640664,0.652273,0.097403
779.674160,0.040909,0.124545
779.707655,-0.163636,0.067726
779.741150,0.113636,0.059047
779.774644,0.063636,0.084672
779.808139,0.411364,0.116570
779.841633,0.155303,0.018844
779.875127,0.031061,0.049101
779.908621,-0.045455,0.050820
779.942114,-0.093182,0.032201
779.975607,0.525000,0.195253
780.009100,-0.306818,0.058773
780.042593,0.062121,0.121692
780.076085,-0.138636,0.038753
780.109577,-0.120455,0.096068
780.143069,-0.002273,0.033767
780.176560,0.022727,0.019682
780.210052,-0.020455,0.075404
780.243543,0.118182,0.060473
780.277033,0.115909,0.133893
780.310524,-0.302273,0.037119
780.344014,0.020455,0.126555
780.377504,0.020455,0.088044
780.410994,-0.090909,0.085038
780.444483,0.124242,0.066959
780.477972,0.256818,0.081842
780.511461,0.020455,0.050858
780.544950,-0.248485,0.067113
780.578438,-0.031061,0.074230
780.611926,0.163636,0.038569
780.645414,0.045455,0.022727
780.678902,0.134091,0.172349
780.712389,0.045455,0.050820
780.745876,0.188636,0.058685
780.779363,0.045455,0.039365
780.812849,-0.138636,0.050347
780.846335,0.018182,0.070711
780.879821,0.000000,0.032141
780.913307,-0.002273,0.033767
780.946792,0.343182,0.107102
780.980277,0.559091,0.140597
781.013762,-0.143182,0.078623
781.047247,0.186364,0.003936
781.080731,0.302273,0.112878
781.114215,-0.031061,0.037119
781.147699,0.140909,0.051975
781.181183,0.181818,0.132522
781.214666,-0.211364,0.118678
781.248149,0.031061,0.049101
781.281632,0.088636,0.073320
781.315114,0.490909,0.252999
781.348596,0.163636,0.050206
781.382078,0.550000,0.121181
781.415560,0.511364,0.103372
781.449041,0.138636,0.243625
781.482522,0.403788,0.103671
781.516003,0.184091,0.054770
781.549484,0.340909,0.171210
781.582964,0.140909,0.025206
781.616444,0.211364,0.088804
781.649924,0.022727,0.019682
781.683404,0.015909,0.137810
781.716883,0.000000,0.000000
781.750362,0.209091,0.018741
781.783841,0.159091,0.081153
781.817319,0.275000,0.110426
781.850797,-0.002273,0.033767
781.884275,0.113636,0.074516
781.917753,0.393182,0.045836
781.951230,0.370455,0.250482
781.984707,0.279545,0.032679
782.018184,0.184091,0.030555
782.051661,-0.075000,0.072469
782.085137,-0.186364,0.055809
782.118613,0.115909,0.037397
782.152089,0.252273,0.047714
782.185564,-0.070455,0.049832
782.219040,0.131818,0.097569
782.252515,0.277273,0.043301
782.285989,0.279545,0.055982
782.319464,-0.022727,0.037689
782.352938,0.184091,0.030555
782.386412,-0.025000,0.038753
782.419885,-0.259091,0.063758
782.453359,-0.304545,0.042336
782.486832,0.231818,0.049948
782.520305,0.211364,0.061269
782.553777,-0.118182,0.068484
782.587249,-0.254545,0.035791
782.620721,-0.838636,0.017714
782.654193,0.022727,0.019682
782.687665,0.275000,0.105645
782.721136,0.093182,0.055705
782.754607,0.279545,0.064553
782.788077,0.227273,0.138245
782.821548,0.188636,0.058685
782.855018,-0.097727,0.094441
782.888488,0.000000,0.032141
782.921957,0.325000,0.067295
782.955427,-0.209091,0.049167
782.988896,-0.047727,0.040064
783.022365,0.300000,0.097171
783.055833,-0.045455,0.022727
783.089301,-0.050000,0.070528
783.122769,-0.163636,0.134226
783.156237,0.347727,0.116703
783.189704,0.313636,0.290367
783.223172,0.838636,0.280760
783.256638,0.000000,0.032141
783.290105,0.388636,0.124705
783.323571,0.250000,0.141476
783.357037,0.527273,0.159545
783.390503,-0.050000,0.095427
783.423969,-0.022727,0.049533
783.457434,0.070455,0.049832
783.490899,-0.027273,0.083443
783.524364,0.113636,0.059047
783.557828,0.638636,0.273491
783.591292,0.411364,0.198532
783.624756,-0.068182,0.067228
783.658220,-0.004545,0.074793
783.691683,-0.147727,0.121729
783.725146,-0.186364,0.064403
783.758609,0.295455,0.180034
783.792072,0.254545,0.097701
783.825534,0.525000,0.299627
783.858996,0.970455,0.516498
783.892458,0.161364,0.066679
783.925919,0.111364,0.177807
783.959381,-0.070455,0.020423
783.992842,-0.186364,0.003936
784.026302,0.277273,0.100695
784.059763,0.090909,0.032141
784.093223,0.159091,0.049533
784.126683,0.531818,0.200039
784.160142,0.731818,0.324316
784.193601,0.043182,0.052359
784.227060,0.250000,0.108402
784.260519,0.068182,0.087286
784.293978,0.000000,0.064282
784.327436,0.304545,0.042336
784.360894,0.111364,0.104663
784.394352,0.022727,0.049533
784.427809,-0.120455,0.071392
784.461266,0.072727,0.088840
784.494723,0.022727,0.037689
784.528180,0.063636,0.078335
784.561636,0.115909,0.019117
784.595092,0.186364,0.003936
784.628548,0.031061,0.037119
784.662003,0.161364,0.017714
784.695458,0.062121,0.037137
784.728913,0.159091,0.113067
784.762368,0.159091,0.067228
784.795823,0.279545,0.032679
784.829277,0.047727,0.040064
784.862731,0.090909,0.055670
784.896184,-0.004545,0.117722
784.929637,-0.143182,0.124415
784.963091,0.159091,0.059047
784.996543,0.259091,0.106285
785.029996,0.154545,0.154612
785.063448,0.593182,0.406499
785.096900,0.720455,0.170178
785.130352,0.621212,0.159091
785.163803,0.590909,0.297198
785.197254,0.229545,0.145006
785.230705,-0.070455,0.081335
785.264156,0.070455,0.049832
785.297606,0.061364,0.142055
785.331056,0.140909,0.040846
785.364506,0.211364,0.197175
785.397955,-0.022727,0.098412
785.431405,0.022727,0.049533
785.464854,-0.468182,0.042336
785.498302,-0.306818,0.087101
785.531751,-0.047727,0.051363
785.565199,0.231818,0.122031
785.598647,-0.236364,0.176514
785.632094,-0.217424,0.049311
785.665542,0.279545,0.116037
785.698989,0.315909,0.329277
785.732436,-0.029545,0.102821
785.765882,0.111364,0.130968
785.799328,0.502273,0.187562
785.832774,0.115909,0.067065
785.866220,0.300000,0.154612
785.899665,-0.188636,0.080890
785.933111,0.018182,0.127920
785.966555,-0.195455,0.126683
786.000000,0.124242,0.018741
786.033444,0.031061,0.018568
786.066888,0.518182,0.340060
786.100332,0.368182,0.237530
786.133776,0.136364,0.050820
786.167219,-0.072727,0.061322
786.200662,0.475000,0.242669
786.234104,-0.020455,0.075404
786.267547,-0.143182,0.055519
786.300989,0.063636,0.084672
786.334431,0.186364,0.032381
786.367872,0.043182,0.052359
786.401314,0.111364,0.068963
786.434755,0.234091,0.069560
786.468196,0.155303,0.037258
786.501636,-0.002273,0.072612
786.535076,-0.050000,0.043301
786.568516,0.093182,0.032201
786.601956,0.093182,0.001968
786.635395,0.062121,0.049114
786.668834,-0.031061,0.066910
786.702273,-0.217424,0.049311
786.735712,0.465909,0.033614
786.769150,-0.075000,0.072469
786.802588,-0.150000,0.133821
786.836026,0.347727,0.255485
786.869463,0.436364,0.119572
786.902900,0.620455,0.230172
786.936337,0.745455,0.243171
786.969774,0.776515,0.076018
787.003210,1.043182,0.384022
787.036646,0.472727,0.299518
787.070082,0.068182,0.067228
787.103518,-0.093182,0.032201
787.136953,-0.093182,0.111358
787.170388,0.063636,0.163699
787.203823,0.325000,0.037809
787.237257,-0.113636,0.133975
787.270691,0.225000,0.205437
787.304125,0.161364,0.066679
787.337559,0.279545,0.055982
787.370992,-0.395455,0.018603
787.404425,0.002273,0.072612
787.437858,0.136364,0.068182
787.471290,-0.234091,0.149668
787.504723,0.297727,0.129181
787.538155,0.062121,0.037137
787.571586,0.275000,0.212725
787.605018,0.093182,0.032201
787.638449,0.138636,0.021651
787.671880,0.025000,0.059732
787.705310,0.045455,0.068182
787.738741,-0.163636,0.067726
787.772171,0.365909,0.083219
787.805600,0.204545,0.232608
787.839030,0.047727,0.023918
787.872459,0.186364,0.115954
787.905888,0.209091,0.103353
787.939317,0.124242,0.037206
787.972745,0.163636,0.067726
788.006173,0.093182,0.032201
788.039601,-0.052273,0.086744
788.073028,0.565909,0.469200
788.106456,0.155303,0.037258
788.139883,0.045455,0.081944
788.173309,0.184091,0.054770
788.206736,0.070455,0.121983
788.240162,0.186364,0.032381
788.273588,0.254545,0.112448
788.307013,0.248485,0.081057
788.340439,-0.062121,0.037137
788.373864,0.065909,0.051363
788.407288,0.509091,0.264965
788.440713,0.022727,0.081153
788.474137,0.068182,0.098412
788.507561,0.370455,0.053142
788.540985,0.093182,0.085060
788.574408,0.163636,0.098753
788.607831,0.231818,0.020706
788.641254,0.124242,0.074273
788.674677,0.118182,0.039886
788.708099,-0.434848,0.038233
788.741521,0.597727,0.281091
788.774943,0.738636,0.645706
788.808364,0.372727,0.116154
788.841785,1.288636,0.403092
788.875206,0.568182,0.204230
788.908627,0.247727,0.197489
788.942047,0.045455,0.050820
788.975467,0.095455,0.057631
789.008887,-0.054545,0.157328
789.042306,-0.097727,0.094441
789.075726,-0.118939,0.082387
789.109145,0.090909,0.055670
789.142563,0.229545,0.037397
789.175982,-0.256818,0.022355
789.209400,-0.031061,0.066910
789.242817,0.159091,0.081153
789.276235,0.113636,0.098412
789.309652,0.088636,0.065899
789.343069,-0.120455,0.055052
789.376486,0.217424,0.037397
789.409902,0.272727,0.115887
789.443319,0.209091,0.066959
789.476735,-0.004545,0.074793
789.510150,0.338636,0.202907
789.543565,0.550000,0.193422
789.576980,0.310606,0.269632
789.610395,0.431818,0.323614
789.643810,0.279545,0.064553
789.677224,0.018182,0.189715
789.710638,0.045455,0.050820
789.744052,0.250000,0.300439
789.777465,-0.118182,0.060473
789.810878,0.134091,0.119199
789.844291,0.315909,0.190024
789.877703,0.088636,0.057530
789.911116,0.777273,0.497115
789.944528,0.350000,0.122538
789.977939,0.229545,0.092897
790.011351,-0.025000,0.087751
790.044762,0.438636,0.090246
790.078173,0.018182,0.127920
790.111583,0.086364,0.099664
790.144994,0.045455,0.022727
790.178404,-0.072727,0.061322
790.211813,-0.702273,0.065506
790.245223,0.300000,0.316783
790.278632,0.020455,0.088044
790.312041,0.161364,0.117233
790.345450,0.018182,0.105822
790.378858,0.227273,0.081944
790.412266,0.256818,0.022355
790.445674,0.140909,0.082666
790.479081,-0.072727,0.134993
790.512488,0.161364,0.036699
790.545895,-0.050000,0.070528
790.579302,0.281818,0.081692
790.612708,0.534091,0.167300
790.646115,1.861364,0.375453
790.679520,2.360606,0.532750
790.712926,1.454545,0.276489
790.746331,0.686364,0.330000
790.779736,0.522727,0.257882
790.813141,0.310606,0.130063
790.846545,0.341667,0.049624
790.879949,-0.075000,0.091384
790.913353,0.638636,0.374005
790.946757,0.247727,0.197489
790.980160,0.163636,0.067726
791.013563,0.304545,0.062117
791.046966,0.186364,0.032381
791.080368,0.231818,0.067535
791.113771,0.045455,0.022727
791.147173,0.209091,0.049167
791.180574,0.327273,0.105431
791.213976,0.159091,0.191166
791.247377,0.068182,0.067228
791.280777,0.479545,0.233889
791.314178,0.165909,0.100534
791.347578,0.118182,0.068484
791.380978,0.254545,0.035791
791.414378,-0.002273,0.079407
791.447777,-0.288636,0.163837
791.481176,0.140909,0.040846
791.514575,0.093182,0.001968
791.547973,0.186364,0.055809
791.581372,0.341667,0.081208
791.614770,0.111364,0.082596
791.648167,0.600000,0.075788
791.681565,0.031061,0.049101
791.714962,0.297727,0.102418
791.748359,-0.022727,0.019682
791.781755,0.062121,0.018603
791.815152,0.322727,0.092123
791.848548,0.124242,0.037206
791.881943,-0.093182,0.032201
791.915339,0.109091,0.136515
791.948734,0.275000,0.070445
791.982129,0.020455,0.099085
792.015523,0.365909,0.100123
792.048918,0.409091,0.317369
792.082312,0.217424,0.067065
792.115705,0.043182,0.076424
792.149099,0.113636,0.037689
792.182492,0.065909,0.051363
792.215885,0.304545,0.119118
792.249278,0.322727,0.173726
792.282670,0.434848,0.206843
792.316062,0.279545,0.085242
792.349454,0.113636,0.049533
792.382845,-0.093182,0.032201
792.416236,0.186364,0.085129
792.449627,0.595455,0.226396
792.483018,0.734091,0.216885
792.516408,1.875000,0.325157
792.549798,2.672727,0.354662
792.583188,2.267424,0.273774
792.616578,0.272727,0.115887
792.649967,0.248485,0.049376
792.683356,0.341667,0.037809
792.716745,0.279545,0.096604
792.750133,-0.031061,0.049101
792.783521,0.062121,0.037137
792.816909,0.350000,0.093900
792.850296,0.204545,0.059047
792.883684,0.234091,0.114469
792.917071,-0.047727,0.051363
792.950457,0.093182,0.032201
792.983844,-0.306818,0.058773
793.017230,0.025000,0.087751
793.050616,0.000000,0.055670
793.084001,0.202273,0.114559
793.117386,-0.027273,0.083443
793.150771,0.031061,0.018568
793.184156,0.279545,0.032679
793.217541,0.115909,0.092897
793.250925,-0.093182,0.055705
793.284309,0.250000,0.161907
793.317692,0.025000,0.038753
793.351075,0.465909,0.195755
793.384458,0.161364,0.036699
793.417841,0.068182,0.059047
793.451223,0.031061,0.074230
793.484606,0.884091,0.512603
793.517988,0.115909,0.019117
793.551369,0.155303,0.018844
793.584750,0.217424,0.049311
793.618131,-0.029545,0.092228
793.651512,-0.186364,0.032381
793.684893,0.165909,0.135542
793.718273,0.155303,0.018844
793.751653,0.248485,0.103453
793.785032,-0.068182,0.037689
793.818411,-0.027273,0.069976
793.851790,-0.155303,0.018844
793.885169,0.022727,0.067228
793.918548,-0.097727,0.061269
793.951926,0.250000,0.081153
793.985304,0.031061,0.018568
794.018681,0.186364,0.064403
794.052059,-0.050000,0.095427
794.085436,0.186364,0.003936
794.118812,0.206818,0.086565
794.152189,0.062121,0.037137
794.185565,0.388636,0.234110
794.218941,0.140909,0.051975
794.252317,0.109091,0.091136
794.285692,-0.186364,0.055809
794.319067,0.403788,0.188523
794.352442,1.225000,0.217646
794.385816,2.391667,0.504938
794.419190,4.721212,0.120089
794.452564,4.634091,0.511140
794.485938,1.577273,0.510363
794.519311,0.062121,0.074239
794.552684,0.693182,0.108253
794.586057,0.354545,0.364005
794.619429,0.113636,0.074516
794.652802,0.429545,0.233889
794.686173,0.372727,0.064763
794.719545,0.270455,0.117673
794.752916,-0.186364,0.140156
794.786287,-0.054545,0.175927
794.819658,-0.093182,0.147303
794.853029,-0.093182,0.055705
794.886399,0.295455,0.234818
794.919769,0.047727,0.040064
794.953138,0.275000,0.110426
794.986508,-0.341667,0.049624
795.019877,0.000000,0.032141
795.053245,-0.070455,0.020423
795.086614,0.045455,0.068182
795.119982,0.113636,0.059047
795.153350,-0.052273,0.073881
795.186718,-0.115909,0.019117
795.220085,0.093182,0.032201
795.253452,0.375000,0.076018
795.286819,0.486364,0.289155
795.320185,-0.072727,0.104841
795.353551,-0.093182,0.064313
795.386917,0.234091,0.105057
795.420283,0.018182,0.084060
795.453648,0.018182,0.070711
795.487013,0.115909,0.081017
795.520378,-0.047727,0.023918
795.553742,-0.124242,0.066959
795.587107,0.124242,0.037206
795.620471,0.248485,0.206706
795.653834,0.062121,0.066920
795.687197,0.088636,0.057530
795.720560,-0.025000,0.038753
795.753923,0.070455,0.074715
795.787286,0.025000,0.059732
795.820648,0.020455,0.060163
795.854010,-0.115909,0.098300
795.887371,0.231818,0.067535
795.920733,0.020455,0.039414
795.954094,0.322727,0.092123
795.987454,0.250000,0.141476
796.020815,0.188636,0.074230
796.054175,0.209091,0.049167
796.087535,0.322727,0.102726
796.120894,0.181818,0.055670
796.154254,0.000000,0.000000
796.187613,1.273485,0.329402
796.220971,1.445455,0.386043
796.254330,2.193182,0.241795
796.287688,7.561364,0.730945
796.321046,9.002273,0.860523
796.354403,7.920455,0.536954
796.387761,2.981818,0.375984
796.421118,0.372727,0.160899
796.454474,0.165909,0.077298
796.487831,0.297727,0.176495
796.521187,0.138636,0.067831
796.554543,0.595455,0.307642
796.587898,0.031061,0.049101
796.621254,0.211364,0.061269
796.654609,-0.100000,0.092375
796.687963,0.136364,0.093707
796.721318,-0.302273,0.037119
796.754672,-0.528030,0.021651
796.788026,0.386364,0.209227
796.821379,-0.002273,0.085666
796.854732,0.440909,0.116487
796.888085,-0.004545,0.059396
796.921438,0.181818,0.132522
796.954790,0.120455,0.115591
796.988142,0.279545,0.005905
797.021494,0.413636,0.120326
797.054846,-0.231818,0.067535
797.088197,0.155303,0.129939
797.121548,0.456818,0.397050
797.154899,0.256818,0.022355
797.188249,-0.031818,0.111038
797.221599,0.204545,0.177142
797.254949,0.281818,0.075103
797.288298,0.322727,0.092123
797.321648,0.161364,0.148351
797.354996,-0.310606,0.019682
797.388345,0.572727,0.333309
797.421693,0.186364,0.055809
797.455041,-0.062121,0.049114
797.488389,0.345455,0.170197
797.521737,0.040909,0.150807
797.555084,-0.047727,0.051363
797.588431,-0.211364,0.041082
797.621777,-0.186364,0.085129
797.655124,-0.211364,0.041082
797.688470,0.109091,0.091136
797.721815,0.165909,0.089672
797.755161,-0.217424,0.049311
797.788506,0.250000,0.141476
797.821851,0.090909,0.032141
797.855196,0.496970,0.067726
797.888540,-0.031061,0.049101
797.921884,0.200000,0.190801
797.955228,0.086364,0.104718
797.988571,0.115909,0.049311
798.021914,0.184091,0.054770
798.055257,-0.143182,0.055519
798.088599,0.784091,0.110613
798.121942,0.962879,0.163047
798.155284,3.851515,0.285207
798.188625,10.125758,0.485976
798.221967,12.362121,0.520584
798.255308,9.581818,0.890236
798.288649,1.801515,0.264526
798.321989,1.215909,0.327531
798.355329,0.093182,0.032201
798.388669,-0.190909,0.110689
798.422009,0.406818,0.229655
798.455348,0.270455,0.234881
798.488687,0.020455,0.039414
798.522026,0.411364,0.355235
798.555365,0.020455,0.060163
798.588703,-0.186364,0.055809
798.622041,0.248485,0.074412
798.655378,0.184091,0.030555
798.688716,0.202273,0.114559
798.722053,0.252273,0.112282
798.755389,0.031061,0.037119
798.788726,0.124242,0.049167
798.822062,0.496970,0.273559
798.855398,0.395455,0.158554
798.888733,0.270455,0.108539
798.922069,0.062121,0.049114
798.955404,0.088636,0.133313
798.988738,0.670455,0.228053
799.022073,0.211364,0.041082
799.055407,0.436364,0.163384
799.088741,0.109091,0.136515
799.122074,0.025000,0.059732
799.155408,-0.031061,0.018568
799.188741,0.161364,0.058421
799.222073,0.140909,0.104718
799.255406,0.113636,0.098412
799.288738,0.227273,0.081944
799.322069,0.161364,0.036699
799.355401,0.063636,0.128324
799.388732,-0.138636,0.067831
799.422063,0.697727,0.182764
799.455394,0.154545,0.120861
799.488724,-0.093182,0.055705
799.522054,-0.050000,0.070528
799.555384,0.161364,0.036699
799.588713,0.156818,0.142490
799.622042,-0.054545,0.357852
799.655371,0.138636,0.050347
799.688700,0.104545,0.323870
799.722028,0.093182,0.032201
799.755356,0.015909,0.113107
799.788684,0.070455,0.067449
799.822011,-0.302273,0.049101
799.855338,0.434091,0.128580
799.888665,0.063636,0.078335
799.921992,-0.211364,0.041082
799.955318,0.124242,0.080930
799.988644,0.186364,0.055809
800.021969,1.515909,0.186679
800.055295,6.359091,0.756934
800.088620,20.531061,0.625214
800.121945,31.309091,2.531284
800.155269,25.325000,1.904481
800.188593,5.629545,0.826557
800.221917,1.056061,0.070528
800.255241,-0.022727,0.049533
800.288564,0.363636,0.213201
800.321887,0.502273,0.327862
800.355210,-0.155303,0.018844
800.388532,0.045455,0.022727
800.421854,-0.155303,0.049206
800.455176,-0.075000,0.128901
800.488498,0.020455,0.075404
800.521819,0.211364,0.224146
800.555140,-0.511364,0.049206
800.588461,-0.209091,0.049167
800.621781,0.331818,0.238658
800.655101,-0.050000,0.153523
800.688421,-0.052273,0.161616
800.721740,0.040909,0.085129
800.755060,0.072727,0.099793
800.788379,0.279545,0.167115
800.821697,0.115909,0.049311
800.855015,0.179545,0.086863
800.888334,-0.115909,0.019117
800.921651,0.181818,0.111340
800.954969,0.345455,0.222774
800.988286,0.248485,0.081057
801.021603,-0.248485,0.081057
801.054919,0.070455,0.049832
801.088235,0.322727,0.102726
801.121551,-0.045455,0.022727
801.154867,-0.093182,0.001968
801.188183,0.440909,0.179344
801.221498,0.568182,0.249742
801.254812,0.140909,0.040846
801.288127,0.000000,0.055670
801.321441,0.062121,0.080898
801.354755,0.209091,0.049167
801.388069,0.413636,0.330937
801.421382,-0.727273,0.124482
801.454695,0.310606,0.193849
801.488008,0.045455,0.022727
801.521320,0.209091,0.049167
801.554632,0.461364,0.209372
801.587944,0.163636,0.021320
801.621256,0.275000,0.095367
801.654567,0.155303,0.148490
801.687878,-0.143182,0.078623
801.721189,0.229545,0.103422
801.754499,0.388636,0.132731
801.787809,0.781818,0.463280
801.821119,0.300000,0.056954
801.854428,0.345455,0.078992
801.887737,0.248485,0.081057
801.921046,1.197727,0.444182
801.954355,4.350000,0.956996
801.987663,14.595455,0.791493
802.020971,30.563636,1.012545
802.054279,43.018939,0.940697
802.087586,17.784091,0.991099
802.120894,3.727273,0.486385
802.154200,1.242424,0.132522
802.187507,0.370455,0.069930
802.220813,0.159091,0.049533
802.254119,0.227273,0.081944
802.287425,-0.062121,0.018603
802.320730,0.300000,0.125062
802.354035,-0.434848,0.130222
802.387340,0.131818,0.140891
802.420644,0.090909,0.055670
802.453949,0.279545,0.160815
802.487252,0.040909,0.085129
802.520556,-0.186364,0.032381
802.553859,0.138636,0.081652
802.587162,0.179545,0.098037
802.620465,0.361364,0.317375
802.653767,-0.068182,0.098412
802.687069,0.575000,0.284652
802.720371,0.186364,0.055809
802.753673,0.343182,0.072612
802.786974,0.770455,0.504580
802.820275,0.297727,0.102418
802.853576,0.227273,0.075378
802.886876,0.340909,0.245570
802.920176,0.000000,0.085038
802.953476,-0.006818,0.264914
802.986775,0.327273,0.042640
803.020074,0.465909,0.085605
803.053373,0.222727,0.185795
803.086672,0.025000,0.059732
803.119970,0.209091,0.151916
803.153268,0.031061,0.074230
803.186565,0.295455,0.185683
803.219863,0.022727,0.103528
803.253160,0.063636,0.084672
803.286457,0.300000,0.079643
803.319753,-0.095455,0.057631
803.353049,-0.248485,0.019285
803.386345,0.022727,0.074516
803.419641,-0.002273,0.072612
803.452936,0.070455,0.020423
803.486231,0.634091,0.304586
803.519525,0.217424,0.049311
803.552820,-0.186364,0.085129
803.586114,0.279545,0.064553
803.619408,0.550000,0.218501
803.652701,0.528030,0.113426
803.685994,0.248485,0.148547
803.719287,0.465909,0.395080
803.752580,0.588636,0.261618
803.785872,0.093182,0.032201
803.819164,0.438636,0.222411
803.852456,2.671212,0.565370
803.885747,7.516667,0.516999
803.919038,32.893182,0.951447
803.952329,56.504545,1.786952
803.985620,61.903788,2.055117
804.018910,25.563636,1.378345
804.052200,4.915909,0.496094
804.085489,1.718182,0.380110
804.118779,0.431818,0.201685
804.152068,-0.186364,0.032381
804.185357,0.086364,0.217078
804.218645,0.129545,0.139671
804.251933,1.027273,0.258212
804.285221,0.668182,0.111965
804.318508,0.304545,0.062117
804.351796,0.486364,0.031079
804.385083,0.595455,0.226396
804.418369,-0.068182,0.067228
804.451656,0.652273,0.195992
804.484942,0.065909,0.183385
804.518227,-0.004545,0.087522
804.551513,-0.002273,0.056625
804.584798,0.352273,0.120663
804.618083,-0.002273,0.085666
804.651367,0.204545,0.067228
804.684652,0.248485,0.019285
804.717936,0.245455,0.325151
804.751219,0.752273,0.417408
804.784503,0.095455,0.080128
804.817786,0.134091,0.105400
804.851068,0.281818,0.087787
804.884351,0.217424,0.112970
804.917633,0.248485,0.067113
804.950915,0.155303,0.092842
804.984196,0.156818,0.142490
805.017478,0.341667,0.148629
805.050759,0.304545,0.119118
805.084039,-0.124242,0.018741
805.117320,0.256818,0.177458
805.150600,0.486364,0.178767
805.183879,-0.217424,0.019117
805.217159,0.256818,0.050654
805.250438,0.504545,0.197649
805.283717,0.390909,0.285569
805.316995,0.236364,0.107373
805.350274,0.479545,0.157307
805.383552,0.279545,0.096604
805.416829,-0.093182,0.055705
805.450107,0.341667,0.067295
805.483384,0.229545,0.145006
805.516660,0.290909,0.291831
805.549937,0.620455,0.221013
805.583213,0.650000,0.183332
805.616489,-0.062121,0.049114
805.649764,0.513636,0.096075
805.683040,0.731818,0.156851
805.716315,0.184091,0.220123
805.749589,0.621212,0.250000
805.782864,3.075000,0.231960
805.816138,18.788636,0.149496
805.849411,67.246212,1.510755
805.882685,139.570455,3.527512
805.915958,173.721970,7.622847
805.949231,68.302273,1.460157
805.982504,16.450000,1.238007
806.015776,3.606818,0.106764
806.049048,0.479545,0.115680
806.082319,-0.072727,0.052223
806.115591,0.341667,0.049624
806.148862,-0.115909,0.019117
806.182133,0.000000,0.055670
806.215403,0.415909,0.091384
806.248673,0.186364,0.032381
806.281943,0.129545,0.231514
806.315213,0.038636,0.109392
806.348482,0.522727,0.237007
806.381751,0.420455,0.215235
806.415019,-0.281818,0.103951
806.448288,0.217424,0.103422
806.481556,0.186364,0.085129
806.514823,0.683333,0.304130
806.548091,0.590152,0.130494
806.581358,0.161364,0.098037
806.614625,0.000000,0.032141
806.647891,0.093182,0.055705
806.681158,0.161364,0.058421
806.714424,0.338636,0.169631
806.747689,0.504545,0.242267
806.780955,-0.027273,0.166205
806.814220,0.275000,0.212725
806.847484,0.465909,0.170360
806.880749,0.807576,0.260354
806.914013,0.093182,0.147303
806.947277,0.184091,0.242456
806.980540,0.341667,0.113107
807.013803,0.115909,0.019117
807.047066,0.113636,0.074516
807.080329,0.395455,0.049114
807.113591,0.209091,0.066959
807.146853,0.390909,0.157262
807.180115,0.084091,0.173782
807.213376,0.068182,0.059047
807.246637,0.403788,0.113198
807.279898,0.155303,0.092842
807.313159,0.341667,0.214128
807.346419,0.222727,0.206843
807.379679,-0.155303,0.049206
807.412938,0.436364,0.207902
807.446198,0.161364,0.098037
807.479457,0.565909,0.215858
807.512715,0.745455,0.179646
807.545974,0.395455,0.112884
807.579232,0.281818,0.196719
807.612490,0.372727,0.195666
807.645747,0.459091,0.165191
807.679004,1.409091,0.232885
807.712261,2.077273,0.390135
807.745518,12.455303,0.403156
807.778774,66.263636,0.534994
807.812030,221.834848,6.501648
807.845285,326.343182,4.734916
807.878541,233.768182,9.148523
807.911796,49.213636,1.507809
807.945051,7.245455,0.932838
807.978305,0.590152,0.375494
808.011559,0.427273,0.228948
808.044813,0.636364,0.304918
808.078066,0.217424,0.037397
808.111320,0.279545,0.140225
808.144573,0.306818,0.221153
808.177825,0.254545,0.035791
808.211078,0.088636,0.112282
808.244330,-0.155303,0.103372
808.277581,0.320455,0.080377
808.310833,0.217424,0.098300
808.344084,0.318182,0.199431
808.377335,0.496970,0.113363
808.410585,0.248485,0.148547
808.443835,0.297727,0.179398
808.477085,0.227273,0.207055
808.510335,0.062121,0.182767
808.543584,1.045455,0.457378
808.576833,0.131818,0.107637
808.610082,0.668182,0.198483
808.643330,-0.248485,0.182838
808.676578,0.000000,0.064282
808.709826,0.629545,0.309515
808.743073,0.252273,0.164530
808.776320,0.036364,0.130003
808.809567,-0.190909,0.100925
808.842814,0.372727,0.085401
808.876060,0.559091,0.179344
808.909306,0.270455,0.206815
808.942552,0.155303,0.066988
808.975797,0.072727,0.076331
809.009042,0.088636,0.073320
809.042287,0.275000,0.153485
809.075531,-0.031818,0.143506
809.108775,0.002273,0.116348
809.142019,0.643182,0.287181
809.175262,0.465909,0.111775
809.208506,0.486364,0.160497
809.241748,0.247727,0.270357
809.274991,0.234091,0.083095
809.308233,0.000000,0.195507
809.341475,0.254545,0.057854
809.374717,0.279545,0.005905
809.407958,0.279545,0.055982
809.441199,0.429545,0.224882
809.474440,0.556818,0.316707
809.507680,0.179545,0.185485
809.540921,0.415909,0.120621
809.574160,0.868182,0.489576
809.607400,0.993939,0.215034
809.640639,1.025000,0.286497
809.673878,4.445455,0.630050
809.707117,20.344697,0.963751
809.740355,95.543182,3.966688
809.773593,258.875000,3.142672
809.806831,343.499242,11.246913
809.840068,211.145455,8.293652
809.873305,34.404545,0.345597
809.906542,4.721212,0.502021
809.939778,2.578030,0.387303
809.973015,0.434848,0.322078
810.006250,1.554545,0.446358
810.039486,0.527273,0.244019
810.072721,0.714394,0.068588
810.105956,0.586364,0.143794
810.139191,0.902273,0.304297
810.172425,0.822727,0.450912
810.205659,0.690909,0.439713
810.238893,0.706818,0.455344
810.272126,0.134091,0.139189
810.305359,0.890909,0.370448
810.338592,1.277273,0.526778
810.371825,1.031818,0.412279
810.405057,0.869697,0.273974
810.438289,0.200000,0.133454
810.471520,0.559091,0.116487
810.504751,0.200000,0.173800
810.537982,0.000000,0.032141
810.571213,0.713636,0.292706
810.604443,0.288636,0.245378
810.637673,0.310606,0.130063
810.670903,0.277273,0.077506
810.704133,0.813636,0.294605
810.737362,0.222727,0.168289
810.770591,0.434848,0.165191
810.803819,0.361364,0.275561
810.837047,1.145455,0.362441
810.870275,0.327273,0.242149
810.903503,0.186364,0.140156
810.936730,-0.279545,0.005905
810.969957,0.409091,0.436577
811.003184,0.225000,0.123874
811.036410,0.465909,0.096925
811.069636,0.295455,0.113067
811.102862,0.420455,0.115188
811.136087,0.118182,0.088257
811.169312,0.206818,0.107823
811.202537,0.331818,0.345477
811.235762,0.888636,0.375521
811.268986,0.047727,0.104416
811.302210,-0.093182,0.160718
811.335433,0.062121,0.018603
811.368656,0.625000,0.040576
811.401879,1.025000,0.162158
811.435102,0.372727,0.347750
811.468324,1.397727,0.390808
811.501546,2.222727,0.721150
811.534768,0.654545,0.485364
811.567990,1.288636,0.333996
811.601211,0.525000,0.278172
811.634432,4.454545,0.761957
811.667652,23.699242,1.296413
811.700872,88.197727,2.967834
811.734092,227.068182,5.985121
811.767312,316.849242,6.777822
811.800531,182.512121,6.347686
811.833750,35.397727,0.795353
811.866969,4.479545,0.535953
811.900187,1.350000,0.623685
811.933405,-0.093182,0.115904
811.966623,-0.034091,0.150219
811.999840,0.284091,0.164184
812.033057,-0.124242,0.121713
812.066274,1.040909,0.350641
812.099490,0.631818,0.405049
812.132707,0.752273,0.246156
812.165923,0.186364,0.111410
812.199138,0.236364,0.097277
812.232353,0.597727,0.118023
812.265568,0.477273,0.177142
812.298783,0.365909,0.194723
812.331997,0.275000,0.153485
812.365211,0.554545,0.236757
812.398425,0.000000,0.055670
812.431638,-0.027273,0.083443
812.464851,0.211364,0.099761
812.498064,0.000000,0.140100
812.531277,0.015909,0.161935
812.564489,-0.217424,0.049311
812.597701,0.222727,0.201787
812.630912,0.550000,0.263509
812.664123,0.156818,0.169020
