#{
#    "background_file": "Backgrounds\\\\bg_785.995nm_13bin_219st_244en_10.0s_110g_4x_13_seq.txt",
#    "ccd_image_settings": [
#        1,
#        13,
#        1,
#        1600,
#        219,
#        244
#    ],
#    "ccd_temperature": "-87",
#    "cdRatios": {
#        "mean": 0.9428939112419035,
#        "std": 0.008912662002762178
#    },
#    "center_lambda": 786.0,
#    "comments": "",
#    "dark_region": 16.394151423525507,
#    "date": "10/22/20 17:32:42PM",
#    "eff_field": 1.5,
#    "exposure": 10.0,
#    "fel_lambda": "15.0",
#    "fel_pol": "H",
#    "fel_pulses": 43,
#    "fel_pyro_cal": "0.012",
#    "fel_reprate": "1.07",
#    "fel_transmission": "1.0",
#    "fel_transmission_fits": {
#        "A": 1.0,
#        "C": 0.0,
#        "Mu": 0.0
#    },
#    "fieldInt": {
#        "mean": 5228.05709280303,
#        "std": 206.29635420519742
#    },
#    "fieldStrength": {
#        "mean": 33.16531060606061,
#        "std": 0.6715541975642763
#    },
#    "fpTime": {
#        "mean": 1.1009658807587757,
#        "std": 0.056106585047528815
#    },
#    "gain": 110,
#    "grating": 3,
#    "images_in_sequence": [
#        "hsg_820nm_c123_a90_HAna473.txt",
#        "hsg_820nm_c123_a90_HAna474.txt",
#        "hsg_820nm_c123_a90_HAna475.txt",
#        "hsg_820nm_c123_a90_HAna476.txt"
#    ],
#    "nir_lambda": "819.98",
#    "nir_pola": "90",
#    "nir_polg": "0",
#    "nir_power": "100.0",
#    "pulseEnergies": {
#        "mean": 1.6018579545454548,
#        "std": 0.06989147434681789
#    },
#    "pyroVoltage": {
#        "mean": 0.14163910703439292,
#        "std": 0.0069933995824020614
#    },
#    "rotatorAngle": 67.49999633788168,
#    "sample_Temp": "55",
#    "sample_name": "L001218.C1",
#    "series": "820_Fan",
#    "slits": "60",
#    "spec_step": "",
#    "window_trans": 0.92,
#    "y_max": 2,
#    "y_min": 1
#}
#
#
#
#
#
#
#
#
#
#
#
#
#
#
#
#
#
#
#
#
#
#
#
#
#
#
Wavelength,Signal,error
nm,arb. u.,arb.u.
Wavelength,820_Fan,error
759.194366,0.045455,0.039365
759.228015,0.245455,0.133840
759.261663,0.155303,0.018844
759.295311,0.043182,0.076424
759.328959,-0.020455,0.118111
759.362607,0.234091,0.052654
759.396254,0.093182,0.147303
759.429901,0.363636,0.190150
759.463548,0.186364,0.003936
759.497194,0.361364,0.262111
759.530841,0.186364,0.064403
759.564487,0.000000,0.032141
759.598133,-0.002273,0.079407
759.631779,-0.238636,0.090017
759.665424,-0.031061,0.037119
759.699069,0.343182,0.296508
759.732714,0.113636,0.037689
759.766359,0.134091,0.149910
759.800003,0.422727,0.202094
759.833648,0.270455,0.216575
759.867292,-0.138636,0.021651
759.900935,0.209091,0.018741
759.934579,0.250000,0.098412
759.968222,-0.209091,0.037206
760.001865,0.000000,0.032141
760.035508,0.297727,0.065506
760.069151,0.200000,0.190801
760.102793,0.124242,0.018741
760.136435,0.095455,0.102726
760.170077,0.217424,0.112970
760.203718,-0.027273,0.062158
760.237360,-0.631818,0.082666
760.271001,-0.068182,0.117546
760.304642,0.000000,0.055670
760.338283,-0.020455,0.088044
760.371923,-0.062121,0.018603
760.405563,0.124242,0.080930
760.439203,0.062121,0.018603
760.472843,0.279545,0.032679
760.506482,0.129545,0.279986
760.540122,0.229545,0.121771
760.573761,0.765909,0.233292
760.607399,0.093182,0.032201
760.641038,-0.045455,0.068182
760.674676,0.304545,0.100284
760.708314,0.345455,0.106794
760.741952,0.140909,0.069048
760.775589,-0.120455,0.071392
760.809227,0.204545,0.126029
760.842864,0.454545,0.270827
760.876501,-0.300000,0.072869
760.910137,0.184091,0.084451
760.943774,0.304545,0.069939
760.977410,0.118182,0.088257
761.011046,0.231818,0.093237
761.044681,0.000000,0.000000
761.078317,0.161364,0.058421
761.111952,0.031061,0.074230
761.145587,-0.254545,0.035791
761.179221,0.040909,0.078828
761.212856,-0.463636,0.149586
761.246490,0.186364,0.032381
761.280124,0.155303,0.018844
761.313758,0.022727,0.049533
761.347391,0.113636,0.074516
761.381024,-0.186364,0.032381
761.414657,-0.186364,0.032381
761.448290,0.279545,0.140225
761.481923,0.136364,0.050820
761.515555,0.000000,0.032141
761.549187,-0.188636,0.058685
761.582819,0.070455,0.049832
761.616450,-0.263636,0.162178
761.650082,-0.254545,0.057854
761.683713,0.304545,0.119118
761.717344,-0.211364,0.069188
761.750974,-0.188636,0.087041
761.784605,-0.050000,0.153523
761.818235,0.159091,0.081153
761.851865,0.248485,0.232575
761.885494,-0.486364,0.071401
761.919124,0.155303,0.066988
761.952753,0.109091,0.236276
761.986382,0.047727,0.068588
762.020010,0.159091,0.067228
762.053639,-0.077273,0.105308
762.087267,0.115909,0.037397
762.120895,0.186364,0.064403
762.154523,-0.062121,0.018603
762.188150,-0.259091,0.044710
762.221777,0.154545,0.140616
762.255404,0.018182,0.084060
762.289031,0.222727,0.168289
762.322658,0.111364,0.088629
762.356284,-0.045455,0.039365
762.389910,-0.329545,0.074299
762.423536,0.256818,0.081842
762.457161,0.340909,0.310583
762.490786,0.209091,0.098228
762.524411,-0.120455,0.055052
762.558036,-0.027273,0.123399
762.591661,0.202273,0.142671
762.625285,-0.081818,0.270177
762.658909,0.000000,0.085038
762.692533,0.000000,0.032141
762.726157,0.115909,0.081017
762.759780,0.022727,0.067228
762.793403,0.727273,0.577648
762.827026,0.154545,0.107277
762.860649,0.093182,0.032201
762.894271,0.063636,0.111062
762.927893,-0.047727,0.040064
762.961515,-0.045455,0.050820
762.995137,0.095455,0.107637
763.028758,0.300000,0.097171
763.062379,-0.102273,0.120663
763.096000,0.093182,0.140114
763.129621,0.184091,0.030555
763.163241,-0.068182,0.037689
763.196862,0.031061,0.018568
763.230481,0.279545,0.116037
763.264101,0.020455,0.039414
763.297721,-0.002273,0.046619
763.331340,0.272727,0.208299
763.364959,0.250000,0.191166
763.398578,-0.077273,0.228937
763.432196,0.181818,0.090909
763.465814,-0.155303,0.112924
763.499432,0.062121,0.066920
763.533050,0.231818,0.067535
763.566668,0.088636,0.086266
763.600285,-0.031818,0.111038
763.633902,0.465909,0.096925
763.667519,0.418182,0.081057
763.701135,0.025000,0.059732
763.734752,-0.124242,0.049167
763.768368,0.155303,0.049206
763.801984,-0.020455,0.088044
763.835599,0.179545,0.086863
763.869215,0.184091,0.054770
763.902830,0.181818,0.064282
763.936444,-0.095455,0.035428
763.970059,-0.279545,0.096604
764.003673,0.115909,0.019117
764.037288,0.550000,0.158163
764.070901,-0.143182,0.124415
764.104515,-0.124242,0.037206
764.138128,0.204545,0.113067
764.171742,0.062121,0.129904
764.205354,-0.115909,0.019117
764.238967,0.322727,0.121181
764.272580,-0.168182,0.133821
764.306192,0.300000,0.133066
764.339804,0.093182,0.001968
764.373415,-0.004545,0.158815
764.407027,-0.004545,0.059396
764.440638,0.272727,0.136364
764.474249,0.022727,0.049533
764.507860,-0.350000,0.039821
764.541470,0.281818,0.059786
764.575080,0.272727,0.140100
764.608690,-0.047727,0.113880
764.642300,-0.341667,0.037809
764.675909,-0.093182,0.032201
764.709519,0.347727,0.034970
764.743128,0.381818,0.390539
764.776736,0.347727,0.201194
764.810345,0.062121,0.080898
764.843953,-0.190909,0.063147
764.877561,-0.047727,0.023918
764.911169,0.209091,0.018741
764.944776,0.161364,0.141216
764.978384,0.090909,0.106600
765.011991,0.045455,0.068182
765.045598,0.047727,0.023918
765.079204,0.163636,0.021320
765.112810,-0.070455,0.038081
765.146416,0.243182,0.240810
765.180022,0.388636,0.205939
765.213628,0.040909,0.078828
765.247233,0.062121,0.037137
765.280838,0.322727,0.144510
765.314443,0.245455,0.137645
765.348048,0.031061,0.049101
765.381652,0.072727,0.099793
765.415256,0.045455,0.039365
765.448860,0.156818,0.076424
765.482463,-0.188636,0.074230
765.516067,0.000000,0.000000
765.549670,0.031061,0.037119
765.583273,0.138636,0.021651
765.616875,-0.140909,0.051975
765.650478,-0.236364,0.079772
765.684080,0.661364,0.545221
765.717682,-0.124242,0.103353
765.751283,0.152273,0.250689
765.784885,0.136364,0.050820
765.818486,0.454545,0.210764
765.852087,0.225000,0.131950
765.885687,0.479545,0.290969
765.919288,0.031061,0.080890
765.952888,0.031061,0.037119
765.986488,0.136364,0.122390
766.020087,-0.045455,0.068182
766.053687,-0.004545,0.113249
766.087286,0.315909,0.184508
766.120885,0.070455,0.038081
766.154484,-0.002273,0.102165
766.188082,0.227273,0.177506
766.221680,-0.020455,0.099085
766.255278,-0.138636,0.021651
766.288876,-0.115909,0.037397
766.322473,0.095455,0.057631
766.356070,0.310606,0.074516
766.389667,0.615909,0.283506
766.423264,-0.217424,0.019117
766.456860,0.304545,0.062117
766.490457,0.118182,0.039886
766.524053,0.002273,0.056625
766.557648,0.217424,0.049311
766.591244,0.000000,0.032141
766.624839,-0.000000,0.085038
766.658434,0.047727,0.104416
766.692029,0.372727,0.064763
766.725623,0.000000,0.032141
766.759217,-0.070455,0.067449
766.792811,-0.254545,0.116952
766.826405,-0.143182,0.124415
766.859999,0.231818,0.049948
766.893592,0.043182,0.052359
766.927185,0.140909,0.082666
766.960777,0.200000,0.282477
766.994370,0.186364,0.032381
767.027962,-0.115909,0.037397
767.061554,0.113636,0.103528
767.095146,0.093182,0.055705
767.128737,-0.047727,0.082282
767.162329,-0.217424,0.019117
767.195920,-0.022727,0.049533
767.229510,0.393182,0.101811
767.263101,-0.093182,0.032201
767.296691,0.209091,0.098228
767.330281,-0.161364,0.066679
767.363871,-0.155303,0.074299
767.397460,0.115909,0.019117
767.431050,0.093182,0.001968
767.464639,0.320455,0.170844
767.498227,0.368182,0.152848
767.531816,0.159091,0.067228
767.565404,-0.420455,0.054201
767.598992,-0.020455,0.126555
767.632580,0.254545,0.057854
767.666168,-0.062121,0.018603
767.699755,-0.115909,0.049311
767.733342,0.093182,0.032201
767.766929,0.045455,0.039365
767.800515,0.363636,0.373447
767.834101,0.043182,0.069337
767.867687,0.022727,0.049533
767.901273,0.045455,0.039365
767.934859,-0.279545,0.140225
767.968444,-0.062121,0.018603
768.002029,0.093182,0.032201
768.035614,0.161364,0.117233
768.069198,0.140909,0.051975
768.102783,-0.745455,0.015746
768.136367,0.161364,0.086863
768.169950,-0.217424,0.037397
768.203534,0.310606,0.133975
768.237117,0.254545,0.035791
768.270700,0.025000,0.038753
768.304283,0.161364,0.058421
768.337866,0.084091,0.182481
768.371448,-0.062121,0.049114
768.405030,-0.093182,0.064313
768.438612,0.247727,0.149910
768.472193,0.209091,0.037206
768.505775,0.118182,0.039886
768.539356,0.459091,0.209325
768.572936,0.000000,0.064282
768.606517,-0.434848,0.067535
768.640097,-0.031061,0.037119
768.673677,0.113636,0.074516
768.707257,-0.050000,0.070528
768.740836,0.461364,0.158876
768.774416,0.279545,0.085242
768.807995,0.020455,0.088044
768.841574,0.161364,0.117233
768.875152,0.279545,0.064553
768.908730,0.370455,0.146353
768.942308,-0.075000,0.132848
768.975886,-0.025000,0.067831
769.009464,0.327273,0.070124
769.043041,0.002273,0.085666
769.076618,0.211364,0.069188
769.110195,-0.002273,0.056625
769.143771,0.124242,0.049167
769.177348,0.000000,0.000000
769.210924,-0.029545,0.125449
769.244499,0.250000,0.081153
769.278075,0.181818,0.111340
769.311650,0.372727,0.147500
769.345225,0.229545,0.103422
769.378800,0.068182,0.037689
769.412375,0.093182,0.055705
769.445949,-0.163636,0.021320
769.479523,0.088636,0.086266
769.513097,0.209091,0.080930
769.546670,0.186364,0.003936
769.580243,-0.256818,0.075266
769.613816,0.062121,0.121692
769.647389,-0.279545,0.032679
769.680962,0.413636,0.276517
769.714534,-0.025000,0.087751
769.748106,0.161364,0.036699
769.781678,0.281818,0.075103
769.815249,-0.052273,0.086744
769.848820,-0.211364,0.142418
769.882391,0.068182,0.067228
769.915962,0.436364,0.215226
769.949533,-0.115909,0.019117
769.983103,0.000000,0.032141
770.016673,-0.186364,0.003936
770.050243,-0.031061,0.018568
770.083812,-0.143182,0.071753
770.117381,-0.062121,0.037137
770.150950,0.000000,0.032141
770.184519,-0.093182,0.055705
770.218088,-0.027273,0.053203
770.251656,0.011364,0.161007
770.285224,-0.093182,0.055705
770.318791,0.095455,0.057631
770.352359,0.279545,0.140225
770.385926,0.436364,0.224621
770.419493,0.209091,0.037206
770.453060,-0.281818,0.081692
770.486626,0.000000,0.064282
770.520192,-0.093182,0.032201
770.553758,0.090909,0.045455
770.587324,0.115909,0.049311
770.620890,0.163636,0.074966
770.654455,0.252273,0.092059
770.688020,0.310606,0.049533
770.721584,-0.062121,0.037137
770.755149,0.159091,0.049533
770.788713,0.181818,0.090909
770.822277,0.159091,0.059047
770.855841,-0.434848,0.067535
770.889404,0.000000,0.000000
770.922967,-0.138636,0.021651
770.956530,0.345455,0.056040
770.990093,0.045455,0.099066
771.023655,0.252273,0.245210
771.057217,0.248485,0.121798
771.090779,-0.029545,0.092228
771.124341,-0.538636,0.059559
771.157902,0.063636,0.128324
771.191463,0.165909,0.077298
771.225024,0.090909,0.032141
771.258585,-0.124242,0.018741
771.292145,0.163636,0.038569
771.325705,0.018182,0.084060
771.359265,0.206818,0.133507
771.392825,0.062121,0.018603
771.426384,0.095455,0.057631
771.459943,-0.113636,0.074516
771.493502,-0.031061,0.129899
771.527061,0.231818,0.020706
771.560619,-0.145455,0.088374
771.594177,-0.062121,0.037137
771.627735,-0.070455,0.074715
771.661293,0.325000,0.037809
771.694850,-0.193182,0.130929
771.728407,0.118182,0.039886
771.761964,0.184091,0.160396
771.795521,0.231818,0.122031
771.829077,0.065909,0.068588
771.862633,0.209091,0.103353
771.896189,0.310606,0.113067
771.929744,-0.124242,0.037206
771.963300,0.136364,0.075378
771.996855,0.018182,0.062984
772.030409,0.197727,0.173037
772.063964,0.217424,0.019117
772.097518,-0.279545,0.032679
772.131072,-0.347727,0.065742
772.164626,0.284091,0.198376
772.198180,0.325000,0.093064
772.231733,0.031061,0.018568
772.265286,-0.256818,0.022355
772.298839,0.020455,0.060163
772.332391,0.634091,0.294235
772.365943,0.468182,0.207641
772.399495,0.434848,0.204331
772.433047,-0.341667,0.049624
772.466598,-0.031061,0.080890
772.500150,0.000000,0.064282
772.533701,0.093182,0.032201
772.567251,0.018182,0.084060
772.600802,0.020455,0.060163
772.634352,0.155303,0.018844
772.667902,0.155303,0.092842
772.701452,-0.155303,0.080953
772.735001,-0.062121,0.049114
772.768550,0.250000,0.081153
772.802099,0.195455,0.227125
772.835648,0.000000,0.000000
772.869196,0.065909,0.109251
772.902744,0.109091,0.205905
772.936292,0.163636,0.021320
772.969840,0.217424,0.067065
773.003387,0.204545,0.067228
773.036934,0.115909,0.049311
773.070481,0.365909,0.159751
773.104028,0.395455,0.074239
773.137574,0.043182,0.052359
773.171120,0.000000,0.096424
773.204666,0.184091,0.030555
773.238212,-0.031061,0.049101
773.271757,-0.050000,0.135661
773.305302,0.025000,0.038753
773.338847,0.456818,0.114107
773.372391,0.345455,0.140248
773.405936,-0.002273,0.033767
773.439480,0.186364,0.032381
773.473024,0.347727,0.086147
773.506567,0.115909,0.037397
773.540110,0.020455,0.050858
773.573653,-0.002273,0.056625
773.607196,0.461364,0.087633
773.640739,0.118182,0.060473
773.674281,-0.217424,0.074369
773.707823,0.297727,0.065506
773.741365,0.093182,0.001968
773.774906,0.115909,0.067065
773.808447,-0.031061,0.049101
773.841988,-0.062121,0.018603
773.875529,0.504545,0.281699
773.909070,-0.375000,0.060931
773.942610,-0.093182,0.055705
773.976150,0.031061,0.049101
774.009689,-0.031061,0.049101
774.043229,-0.261364,0.076018
774.076768,0.568182,0.400639
774.110307,-0.263636,0.098857
774.143845,0.065909,0.109251
774.177384,-0.145455,0.122643
774.210922,0.252273,0.151452
774.244460,0.068182,0.067228
774.277997,0.043182,0.076424
774.311535,0.188636,0.074230
774.345072,0.020455,0.104168
774.378609,-0.263636,0.126377
774.412145,-0.095455,0.097569
774.445682,-0.093182,0.147303
774.479218,0.179545,0.141216
774.512754,0.254545,0.057854
774.546289,0.000000,0.055670
774.579824,0.106818,0.311096
774.613359,0.179545,0.141216
774.646894,0.248485,0.067113
774.680429,0.184091,0.215379
774.713963,0.322727,0.116841
774.747497,0.161364,0.086863
774.781031,0.163636,0.098753
774.814564,0.088636,0.112282
774.848097,-0.163636,0.050206
774.881630,0.509091,0.227182
774.915163,0.409091,0.145526
774.948696,0.665909,0.206140
774.982228,0.068182,0.141476
775.015760,-0.062121,0.018603
775.049291,0.340909,0.218879
775.082823,-0.022727,0.049533
775.116354,0.179545,0.141216
775.149885,0.093182,0.032201
775.183416,0.093182,0.032201
775.216946,-0.372727,0.007873
775.250476,0.161364,0.036699
775.284006,0.204545,0.103528
775.317535,-0.236364,0.057135
775.351065,-0.186364,0.032381
775.384594,-0.165909,0.042927
775.418123,0.062121,0.018603
775.451651,-0.120455,0.084634
775.485180,-0.420455,0.029524
775.518708,0.155303,0.037258
775.552235,0.018182,0.084060
775.585763,-0.115909,0.092897
775.619290,0.279545,0.064553
775.652817,0.090909,0.085038
775.686344,0.000000,0.064282
775.719870,0.000000,0.032141
775.753397,-0.045455,0.022727
775.786923,-0.118182,0.039886
775.820448,-0.093182,0.055705
775.853974,0.217424,0.103422
775.887499,0.481818,0.254586
775.921024,0.256818,0.068059
775.954549,0.238636,0.325950
775.988073,-0.070455,0.103671
776.021597,0.206818,0.097774
776.055121,0.093182,0.111358
776.088645,0.093182,0.032201
776.122168,-0.403788,0.020423
776.155691,0.229545,0.092897
776.189214,-0.095455,0.035428
776.222737,0.093182,0.032201
776.256259,-0.256818,0.022355
776.289781,0.113636,0.037689
776.323303,-0.068182,0.067228
776.356824,0.161364,0.058421
776.390346,0.136364,0.039365
776.423867,0.093182,0.032201
776.457387,-0.277273,0.100695
776.490908,0.115909,0.019117
776.524428,0.111364,0.152810
776.557948,-0.145455,0.174749
776.591468,-0.093182,0.032201
776.624987,0.161364,0.058421
776.658506,0.434848,0.177258
776.692025,-0.248485,0.019285
776.725544,-0.093182,0.111358
776.759062,0.390909,0.178781
776.792581,0.040909,0.101716
776.826099,0.625000,0.138594
776.859616,0.186364,0.147342
776.893134,0.155303,0.066988
776.926651,0.250000,0.098412
776.960167,-0.120455,0.071392
776.993684,0.070455,0.049832
777.027200,0.031061,0.018568
777.060716,0.093182,0.032201
777.094232,0.115909,0.019117
777.127748,0.056818,0.196413
777.161263,0.063636,0.101334
777.194778,0.045455,0.050820
777.228293,0.341667,0.093064
777.261807,0.140909,0.069048
777.295322,0.111364,0.104663
777.328836,-0.304545,0.062117
777.362349,-0.138636,0.021651
777.395863,0.155303,0.066988
777.429376,-0.043182,0.104909
777.462889,0.093182,0.032201
777.496401,0.002273,0.079407
777.529914,0.184091,0.071175
777.563426,0.129545,0.150357
777.596938,0.443182,0.094222
777.630449,0.025000,0.038753
777.663961,0.418182,0.177098
777.697472,0.186364,0.032381
777.730983,-0.027273,0.166205
777.764493,-0.138636,0.075060
777.798004,0.577273,0.149154
777.831514,0.279545,0.231849
777.865023,0.111364,0.180689
777.898533,0.020455,0.060163
777.932042,0.161364,0.036699
777.965551,0.388636,0.179110
777.999060,0.086364,0.246075
778.032568,0.031061,0.098195
778.066076,0.020455,0.060163
778.099584,0.388636,0.184788
778.133092,0.062121,0.049114
778.166599,0.156818,0.118765
778.200107,0.155303,0.049206
778.233613,0.088636,0.073320
778.267120,-0.143182,0.045270
778.300626,0.254545,0.086483
778.334132,-0.115909,0.067065
778.367638,0.043182,0.052359
778.401144,-0.050000,0.123712
778.434649,0.025000,0.038753
778.468154,0.113636,0.037689
778.501659,0.270455,0.280944
778.535163,0.093182,0.055705
778.568668,0.045455,0.050820
778.602172,-0.093182,0.064313
778.635675,-0.284091,0.116304
778.669179,0.043182,0.076424
778.702682,0.134091,0.070078
778.736185,0.204545,0.067228
778.769688,0.163636,0.038569
778.803190,0.022727,0.067228
778.836692,0.236364,0.120947
778.870194,0.000000,0.032141
778.903696,0.140909,0.040846
778.937197,0.231818,0.067535
778.970698,0.124242,0.049167
779.004199,0.322727,0.164565
779.037699,0.200000,0.243171
779.071200,0.095455,0.086334
779.104700,0.068182,0.037689
779.138199,0.163636,0.021320
779.171699,0.038636,0.126882
779.205198,0.184091,0.084451
779.238697,0.115909,0.019117
779.272196,0.031061,0.018568
779.305694,-0.068182,0.130063
779.339192,0.047727,0.159265
779.372690,0.209091,0.049167
779.406188,0.304545,0.100284
779.439685,-0.070455,0.038081
779.473182,0.134091,0.166247
779.506679,0.031061,0.049101
779.540176,-0.068182,0.037689
779.573672,-0.310606,0.093015
779.607168,0.322727,0.121181
779.640664,0.236364,0.107373
779.674160,0.020455,0.109014
779.707655,0.450000,0.331561
779.741150,0.206818,0.035989
779.774644,0.093182,0.032201
779.808139,0.184091,0.044347
779.841633,0.159091,0.067228
779.875127,0.093182,0.055705
779.908621,0.063636,0.101334
779.942114,0.265909,0.500861
779.975607,0.047727,0.023918
780.009100,0.404545,0.366205
780.042593,0.256818,0.050654
780.076085,0.043182,0.199829
780.109577,0.062121,0.080898
780.143069,-0.031061,0.037119
780.176560,0.062121,0.018603
780.210052,-0.002273,0.056625
780.243543,0.068182,0.037689
780.277033,0.118182,0.068484
780.310524,-0.372727,0.033091
780.344014,0.159091,0.059047
780.377504,0.090909,0.055670
780.410994,-0.070455,0.145184
780.444483,0.413636,0.143794
780.477972,0.415909,0.203492
780.511461,0.184091,0.078096
780.544950,-0.047727,0.051363
780.578438,-0.045455,0.022727
780.611926,0.118182,0.039886
780.645414,0.272727,0.215610
780.678902,0.113636,0.049533
780.712389,0.295455,0.087286
780.745876,0.300000,0.072869
780.779363,0.279545,0.147408
780.812849,0.000000,0.055670
780.846335,-0.093182,0.064313
780.879821,0.090909,0.045455
780.913307,0.327273,0.053397
780.946792,0.156818,0.099864
780.980277,0.403788,0.134086
781.013762,0.002273,0.072612
781.047247,0.277273,0.070528
781.080731,0.134091,0.149910
781.114215,0.217424,0.081017
781.147699,0.403788,0.038081
781.181183,0.404545,0.186903
781.214666,0.154545,0.195877
781.248149,0.272727,0.096424
781.281632,0.165909,0.089672
781.315114,0.093182,0.001968
781.348596,0.217424,0.019117
781.382078,0.159091,0.059047
781.415560,0.365909,0.114559
781.449041,0.372727,0.193008
781.482522,0.093182,0.128580
781.516003,0.248485,0.037483
781.549484,0.211364,0.061269
781.582964,0.088636,0.057530
781.616444,0.113636,0.037689
781.649924,0.184091,0.084451
781.683404,-0.050000,0.070528
781.716883,0.184091,0.146952
781.750362,0.465909,0.116304
781.783841,0.181818,0.085038
781.817319,-0.070455,0.067449
781.850797,-0.004545,0.059396
781.884275,0.045455,0.099066
781.917753,0.209091,0.080930
781.951230,-0.025000,0.059732
781.984707,0.281818,0.126377
782.018184,0.124242,0.018741
782.051661,0.111364,0.189071
782.085137,0.231818,0.204331
782.118613,0.184091,0.054770
782.152089,0.155303,0.018844
782.185564,0.347727,0.086147
782.219040,0.188636,0.117365
782.252515,0.372727,0.147500
782.285989,0.340909,0.117546
782.319464,0.163636,0.021320
782.352938,0.047727,0.051363
782.386412,0.000000,0.064282
782.419885,-0.045455,0.050820
782.453359,-0.310606,0.067228
782.486832,0.672727,0.399845
782.520305,0.159091,0.059047
782.553777,0.155303,0.148490
782.587249,-0.488636,0.074299
782.620721,-0.745455,0.015746
782.654193,0.372727,0.140321
782.687665,0.277273,0.146639
782.721136,-0.031061,0.092786
782.754607,0.088636,0.057530
782.788077,-0.020455,0.088044
782.821548,0.113636,0.074516
782.855018,-0.118182,0.088257
782.888488,0.047727,0.023918
782.921957,0.217424,0.019117
782.955427,-0.124242,0.037206
782.988896,0.093182,0.085060
783.022365,0.093182,0.085060
783.055833,-0.009091,0.114361
783.089301,-0.070455,0.049832
783.122769,-0.075000,0.160975
783.156237,0.047727,0.040064
783.189704,0.000000,0.032141
783.223172,0.297727,0.129181
783.256638,0.718182,0.148894
783.290105,1.225000,0.289010
783.323571,0.372727,0.160899
783.357037,0.155303,0.066988
783.390503,-0.115909,0.049311
783.423969,-0.025000,0.059732
783.457434,0.163636,0.081565
783.490899,-0.147727,0.108253
783.524364,-0.062121,0.049114
783.557828,0.234091,0.052654
783.591292,0.336364,0.183346
783.624756,0.186364,0.064403
783.658220,0.140909,0.051975
783.691683,0.359091,0.447923
783.725146,0.020455,0.081968
783.758609,0.186364,0.085129
783.792072,0.186364,0.055809
783.825534,0.340909,0.098412
783.858996,0.159091,0.059047
783.892458,0.231818,0.113249
783.925919,-0.045455,0.022727
783.959381,-0.093182,0.001968
783.992842,-0.209091,0.098228
784.026302,0.179545,0.098037
784.059763,-0.052273,0.073881
784.093223,0.327273,0.042640
784.126683,0.256818,0.039151
784.160142,0.497727,0.176495
784.193601,0.113636,0.049533
784.227060,0.124242,0.037206
784.260519,0.372727,0.111618
784.293978,0.115909,0.037397
784.327436,0.231818,0.081407
784.360894,0.186364,0.055809
784.394352,0.163636,0.214264
784.427809,0.000000,0.064282
784.461266,0.252273,0.182396
784.494723,0.111364,0.152810
784.528180,0.025000,0.148872
784.561636,0.420455,0.160203
784.595092,0.188636,0.074230
784.628548,0.118182,0.068484
784.662003,0.155303,0.018844
784.695458,0.022727,0.081153
784.728913,0.156818,0.099864
784.762368,0.022727,0.019682
784.795823,0.293182,0.197619
784.829277,0.365909,0.178098
784.862731,0.115909,0.145006
784.896184,-0.050000,0.105700
784.929637,-0.302273,0.037119
784.963091,0.124242,0.049167
784.996543,0.090909,0.045455
785.029996,0.277273,0.189647
785.063448,0.445455,0.129605
785.096900,1.436364,0.502720
785.130352,0.936364,0.343084
785.163803,0.777273,0.591970
785.197254,0.222727,0.206843
785.230705,-0.122727,0.126683
785.264156,0.088636,0.107583
785.297606,0.161364,0.036699
785.331056,0.248485,0.098333
785.364506,0.341667,0.177167
785.397955,0.134091,0.095095
785.431405,0.000000,0.000000
785.464854,-0.102273,0.242860
785.498302,-0.118182,0.023619
785.531751,0.020455,0.060163
785.565199,0.093182,0.055705
785.598647,-0.403788,0.020423
785.632094,-0.140909,0.025206
785.665542,-0.115909,0.037397
785.698989,-0.095455,0.047835
785.732436,0.020455,0.050858
785.765882,-0.095455,0.107637
785.799328,0.320455,0.092340
785.832774,0.062121,0.018603
785.866220,0.279545,0.064553
785.899665,-0.077273,0.146357
785.933111,-0.186364,0.064403
785.966555,-0.403788,0.020423
786.000000,0.163636,0.098753
786.033444,0.022727,0.019682
786.066888,0.090909,0.078730
786.100332,0.115909,0.019117
786.133776,0.184091,0.084451
786.167219,-0.062121,0.037137
786.200662,0.109091,0.120433
786.234104,0.315909,0.215499
786.267547,-0.140909,0.025206
786.300989,0.372727,0.064763
786.334431,0.095455,0.073399
786.367872,0.070455,0.121983
786.401314,0.124242,0.103353
786.434755,-0.124242,0.049167
786.468196,0.155303,0.018844
786.501636,0.093182,0.032201
786.535076,0.000000,0.032141
786.568516,0.124242,0.037206
786.601956,0.000000,0.000000
786.635395,0.211364,0.041082
786.668834,-0.093182,0.032201
786.702273,-0.155303,0.037258
786.735712,0.206818,0.102921
786.769150,-0.025000,0.038753
786.802588,-0.325000,0.037809
786.836026,0.336364,0.241680
786.869463,0.155303,0.066988
786.902900,0.827273,0.274728
786.936337,0.434848,0.204331
786.969774,1.272727,0.304918
787.003210,0.559091,0.242948
787.036646,0.461364,0.265887
787.070082,0.038636,0.134778
787.103518,0.095455,0.125371
787.136953,-0.093182,0.032201
787.170388,0.186364,0.064403
787.203823,0.088636,0.073320
787.237257,-0.031061,0.018568
787.270691,0.031061,0.037119
787.304125,0.124242,0.066959
787.337559,0.022727,0.049533
787.370992,-0.118182,0.142077
787.404425,0.159091,0.108402
787.437858,-0.002273,0.079407
787.471290,-0.310606,0.037689
787.504723,-0.155303,0.066988
787.538155,0.095455,0.073399
787.571586,0.115909,0.049311
787.605018,0.031061,0.018568
787.638449,0.393182,0.055982
787.671880,0.124242,0.103353
787.705310,0.000000,0.032141
787.738741,0.022727,0.019682
787.772171,0.310606,0.148599
787.805600,-0.093182,0.032201
787.839030,0.161364,0.098037
787.872459,0.090909,0.045455
787.905888,0.563636,0.424021
787.939317,0.118182,0.068484
787.972745,0.247727,0.153316
788.006173,0.254545,0.140982
788.039601,0.000000,0.032141
788.073028,-0.072727,0.088840
788.106456,0.497727,0.289545
788.139883,0.252273,0.080055
788.173309,0.343182,0.167331
788.206736,-0.093182,0.055705
788.240162,0.231818,0.020706
788.273588,0.163636,0.050206
788.307013,0.363636,0.270827
788.340439,-0.093182,0.055705
788.373864,0.031061,0.037119
788.407288,0.181818,0.055670
788.440713,0.277273,0.029016
788.474137,-0.002273,0.046619
788.507561,0.420455,0.054201
788.540985,-0.062121,0.018603
788.574408,0.124242,0.049167
788.607831,0.279545,0.096604
788.641254,0.325000,0.049624
788.674677,0.447727,0.176437
788.708099,-0.604545,0.037137
788.741521,0.502273,0.198272
788.774943,1.309091,0.527312
788.808364,2.581818,0.196456
788.841785,3.000000,0.338629
788.875206,1.111364,0.618753
788.908627,0.836364,0.162114
788.942047,0.295455,0.255871
788.975467,0.140909,0.051975
789.008887,0.188636,0.074230
789.042306,-0.143182,0.055519
789.075726,0.086364,0.104718
789.109145,-0.004545,0.059396
789.142563,0.279545,0.085242
789.175982,-0.306818,0.092842
789.209400,-0.140909,0.040846
789.242817,0.138636,0.021651
789.276235,0.184091,0.054770
789.309652,0.062121,0.018603
789.343069,0.020455,0.104168
789.376486,0.552273,0.208630
789.409902,0.002273,0.056625
789.443319,0.045455,0.039365
789.476735,0.093182,0.147303
789.510150,0.186364,0.032381
789.543565,0.300000,0.085884
789.576980,0.070455,0.206815
789.610395,0.281818,0.152324
789.643810,0.115909,0.049311
789.677224,-0.161364,0.036699
789.710638,-0.031061,0.018568
789.744052,-0.002273,0.107102
789.777465,0.113636,0.269632
789.810878,0.134091,0.175321
789.844291,0.090909,0.071870
789.877703,0.186364,0.032381
789.911116,0.310606,0.113067
789.944528,0.217424,0.049311
789.977939,0.181818,0.055670
790.011351,0.022727,0.067228
790.044762,0.310606,0.019682
790.078173,-0.062121,0.049114
790.111583,0.209091,0.049167
790.144994,0.575000,0.253964
790.178404,0.134091,0.077097
790.211813,-0.900758,0.076627
790.245223,0.297727,0.311875
790.278632,0.000000,0.032141
790.312041,0.115909,0.049311
790.345450,0.045455,0.068182
790.378858,-0.062121,0.066920
790.412266,0.163636,0.067726
790.445674,0.031061,0.074230
790.479081,-0.097727,0.069188
790.512488,0.340909,0.148599
790.545895,0.161364,0.117233
790.579302,0.327273,0.083567
790.612708,1.184091,0.342879
790.646115,3.206818,0.499125
790.679520,5.179545,0.864356
790.712926,4.493182,0.678084
790.746331,1.025000,0.194059
790.779736,0.020455,0.039414
790.813141,0.188636,0.058685
790.846545,0.184091,0.132146
790.879949,0.022727,0.037689
790.913353,0.155303,0.074299
790.946757,-0.136364,0.122390
790.980160,0.022727,0.067228
791.013563,0.584091,0.173336
791.046966,0.186364,0.032381
791.080368,0.084091,0.121261
791.113771,0.043182,0.052359
791.147173,0.113636,0.059047
791.180574,0.500000,0.237280
791.213976,0.000000,0.032141
791.247377,0.045455,0.068182
791.280777,0.231818,0.049948
791.314178,-0.025000,0.038753
791.347578,-0.050000,0.105700
791.380978,0.136364,0.199431
791.414378,0.086364,0.088695
791.447777,-0.215909,0.084083
791.481176,0.413636,0.147342
791.514575,0.638636,0.420797
791.547973,0.390909,0.084672
791.581372,0.593182,0.314842
791.614770,0.068182,0.037689
791.648167,0.245455,0.137645
791.681565,0.550000,0.220852
791.714962,0.272727,0.101639
791.748359,0.138636,0.093452
791.781755,0.250000,0.121861
791.815152,0.248485,0.074412
791.848548,0.184091,0.078096
791.881943,0.000000,0.000000
791.915339,0.134091,0.077097
791.948734,0.310606,0.081153
791.982129,0.411364,0.187837
792.015523,0.154545,0.133066
792.048918,0.124242,0.112907
792.082312,-0.025000,0.038753
792.115705,0.254545,0.015746
792.149099,0.206818,0.102921
792.182492,0.124242,0.018741
792.215885,-0.186364,0.032381
792.249278,0.031061,0.066910
792.282670,0.434091,0.136378
792.316062,0.124242,0.018741
792.349454,0.111364,0.068963
792.382845,-0.027273,0.153270
792.416236,0.229545,0.174138
792.449627,0.434848,0.206843
792.483018,1.534091,0.421643
792.516408,3.472727,0.290412
792.549798,5.525000,1.056759
792.583188,5.031818,0.792485
792.616578,1.972727,0.295874
792.649967,0.900758,0.149668
792.683356,0.277273,0.083906
792.716745,0.681818,0.241594
792.750133,0.093182,0.001968
792.783521,0.000000,0.000000
792.816909,0.463636,0.241936
792.850296,0.115909,0.067065
792.883684,-0.095455,0.047835
792.917071,0.217424,0.074369
792.950457,0.365909,0.139004
792.983844,0.124242,0.018741
793.017230,0.138636,0.038753
793.050616,0.372727,0.116154
793.084001,0.415909,0.244957
793.117386,0.070455,0.038081
793.150771,0.047727,0.051363
793.184156,0.022727,0.037689
793.217541,0.140909,0.051975
793.250925,0.225000,0.135809
793.284309,0.663636,0.223468
793.317692,0.093182,0.147303
793.351075,0.163636,0.067726
793.384458,0.159091,0.081153
793.417841,-0.000000,0.085038
793.451223,0.090909,0.055670
793.484606,0.025000,0.038753
793.517988,-0.002273,0.033767
793.551369,0.161364,0.148351
793.584750,0.159091,0.067228
793.618131,-0.002273,0.056625
793.651512,0.068182,0.087286
793.684893,0.020455,0.134471
793.718273,0.227273,0.068182
793.751653,0.511364,0.346684
793.785032,0.068182,0.098412
793.818411,0.229545,0.049311
793.851790,0.086364,0.104718
793.885169,0.109091,0.132677
793.918548,0.268182,0.227307
793.951926,0.186364,0.055809
793.985304,0.070455,0.020423
794.018681,0.062121,0.037137
794.052059,-0.097727,0.069188
794.085436,0.297727,0.129181
794.118812,0.138636,0.021651
794.152189,0.086364,0.152848
794.185565,0.115909,0.112970
794.218941,0.186364,0.032381
794.252317,0.395455,0.241241
794.285692,-0.155303,0.037258
794.319067,0.281818,0.196719
794.352442,0.869697,0.149586
794.385816,4.596970,0.162178
794.419190,9.775000,1.229146
794.452564,14.225758,1.355938
794.485938,9.611364,0.955170
794.519311,2.131818,0.569739
794.552684,0.277273,0.160110
794.586057,-0.006818,0.169874
794.619429,0.247727,0.163111
794.652802,0.217424,0.158615
794.686173,0.209091,0.112907
794.719545,1.113636,0.362747
794.752916,-0.341667,0.067295
794.786287,0.217424,0.218829
794.819658,0.186364,0.147342
794.853029,0.095455,0.086334
794.886399,0.062121,0.018603
794.919769,-0.031061,0.049101
794.953138,0.184091,0.054770
794.986508,-0.215909,0.115188
795.019877,-0.115909,0.049311
795.053245,-0.155303,0.074299
795.086614,0.138636,0.021651
795.119982,0.252273,0.065899
795.153350,0.062121,0.066920
795.186718,0.111364,0.114107
795.220085,0.093182,0.001968
795.253452,0.484091,0.123373
795.286819,0.431818,0.348217
795.320185,0.020455,0.075404
795.353551,0.247727,0.163111
795.386917,0.279545,0.167115
795.420283,0.068182,0.059047
795.453648,-0.093182,0.032201
795.487013,0.124242,0.018741
795.520378,-0.045455,0.022727
795.553742,0.065909,0.171749
795.587107,-0.050000,0.053926
795.620471,0.065909,0.138445
795.653834,0.254545,0.035791
795.687197,0.040909,0.071978
795.720560,-0.124242,0.037206
795.753923,0.025000,0.067831
795.787286,0.045455,0.050820
795.820648,0.159091,0.137777
795.854010,-0.155303,0.018844
795.887371,0.161364,0.058421
795.920733,0.134091,0.123456
795.954094,0.090909,0.055670
795.987454,0.045455,0.050820
796.020815,0.124242,0.049167
796.054175,0.204545,0.126029
796.087535,0.434848,0.081407
796.120894,0.300000,0.097171
796.154254,0.156818,0.088920
796.187613,0.663636,0.343686
796.220971,1.720455,0.316609
796.254330,4.263636,0.413437
796.287688,14.567424,1.054302
796.321046,21.959848,0.481694
796.354403,23.554545,1.920168
796.387761,8.977273,0.918910
796.421118,1.770455,0.359858
796.454474,0.545455,0.347660
796.487831,0.093182,0.064313
796.521187,0.159091,0.067228
796.554543,0.124242,0.074273
796.587898,0.300000,0.185028
796.621254,0.093182,0.111358
796.654609,-0.236364,0.097277
796.687963,0.065909,0.104416
796.721318,-0.006818,0.163680
796.754672,-0.422727,0.051174
796.788026,0.186364,0.032381
796.821379,-0.062121,0.049114
796.854732,0.665909,0.263350
796.888085,0.093182,0.001968
796.921438,0.156818,0.123037
796.954790,-0.031061,0.098195
796.988142,0.300000,0.034317
797.021494,0.186364,0.032381
797.054846,0.068182,0.225848
797.088197,-0.095455,0.057631
797.121548,0.062121,0.018603
797.154899,0.062121,0.037137
797.188249,0.272727,0.115887
797.221599,-0.025000,0.038753
797.254949,0.031061,0.103322
797.288298,0.350000,0.204634
797.321648,0.295455,0.130063
797.354996,-0.165909,0.042927
797.388345,0.062121,0.018603
797.421693,0.155303,0.018844
797.455041,0.020455,0.088044
797.488389,0.111364,0.104663
797.521737,0.161364,0.066679
797.555084,0.031061,0.112878
797.588431,-0.279545,0.055982
797.621777,0.040909,0.096504
797.655124,0.045455,0.050820
797.688470,0.300000,0.097171
797.721815,0.252273,0.112282
797.755161,-0.143182,0.055519
797.788506,0.590152,0.159038
797.821851,0.217424,0.074369
797.855196,0.365909,0.166092
797.888540,0.248485,0.037483
797.921884,0.000000,0.064282
797.955228,-0.004545,0.074793
797.988571,0.177273,0.119464
798.021914,0.165909,0.089672
798.055257,-0.056818,0.335324
798.088599,0.738636,0.260312
798.121942,1.465909,0.333393
798.155284,6.368182,0.577662
798.188625,17.815909,1.321314
798.221967,29.631818,0.665110
798.255308,29.134848,1.403926
798.288649,10.312121,0.679739
798.321989,1.609091,0.347868
798.355329,0.179545,0.098037
798.388669,-0.217424,0.098300
798.422009,0.247727,0.219771
798.455348,0.304545,0.142784
798.488687,-0.095455,0.097569
798.522026,0.493182,0.142961
798.555365,0.045455,0.039365
798.588703,-0.161364,0.036699
798.622041,0.395455,0.185572
798.655378,0.343182,0.167331
798.688716,0.528030,0.081652
798.722053,0.188636,0.058685
798.755389,-0.004545,0.074793
798.788726,0.115909,0.081017
798.822062,0.275000,0.242243
798.855398,0.250000,0.087286
798.888733,0.277273,0.100695
798.922069,0.068182,0.059047
798.955404,-0.047727,0.040064
798.988738,0.156818,0.142490
799.022073,0.124242,0.037206
799.055407,0.413636,0.195547
799.088741,0.570455,0.160235
799.122074,0.713636,0.319696
799.155408,0.204545,0.103528
799.188741,0.211364,0.041082
799.222073,0.341667,0.121899
799.255406,0.403788,0.093175
799.288738,0.868182,0.347683
799.322069,0.206818,0.086565
799.355401,-0.004545,0.158815
799.388732,0.368182,0.254332
799.422063,0.370455,0.159848
799.455394,0.070455,0.020423
799.488724,0.093182,0.096444
799.522054,0.431818,0.204230
799.555384,0.590152,0.273642
799.588713,-0.097727,0.076289
799.622042,-0.652273,0.057350
799.655371,0.161364,0.141216
799.688700,-0.075000,0.285829
799.722028,0.475000,0.341671
799.755356,0.134091,0.100380
799.788684,0.068182,0.037689
799.822011,-0.186364,0.055809
799.855338,0.131818,0.137176
799.888665,0.325000,0.165094
799.921992,0.179545,0.151793
799.955318,0.559091,0.116487
799.988644,0.279545,0.064553
800.021969,1.947727,0.389139
800.055295,11.347727,1.445992
800.088620,36.434091,0.606357
800.121945,60.692424,2.816204
800.155269,70.445455,1.805885
800.188593,29.018182,1.793710
800.221917,3.416667,0.590363
800.255241,0.856818,0.559464
800.288564,0.461364,0.141690
800.321887,0.236364,0.097277
800.355210,0.031061,0.129899
800.388532,0.254545,0.057854
800.421854,-0.236364,0.057135
800.455176,-0.138636,0.021651
800.488498,0.254545,0.086483
800.521819,0.295455,0.113067
800.555140,-0.496970,0.152256
800.588461,0.311364,0.298903
800.621781,0.025000,0.148872
800.655101,0.084091,0.182481
800.688421,-0.186364,0.032381
800.721740,0.259091,0.136117
800.755060,0.093182,0.032201
800.788379,0.000000,0.055670
800.821697,0.488636,0.098248
800.855015,0.279545,0.055982
800.888334,0.152273,0.184172
800.921651,0.086364,0.082666
800.954969,0.181818,0.213201
800.988286,0.163636,0.038569
801.021603,0.131818,0.276891
801.054919,0.602273,0.233646
801.088235,0.602273,0.202881
801.121551,0.341667,0.067295
801.154867,0.177273,0.110479
801.188183,0.200000,0.116952
801.221498,0.388636,0.179110
801.254812,0.940909,0.309850
801.288127,0.772727,0.380979
801.321441,0.118182,0.039886
801.354755,0.343182,0.120706
801.388069,0.138636,0.122195
801.421382,-0.472727,0.202362
801.454695,0.161364,0.036699
801.488008,0.155303,0.103372
801.521320,0.093182,0.064313
801.554632,0.343182,0.190432
801.587944,0.403788,0.049832
801.621256,0.155303,0.066988
801.654567,0.062121,0.037137
801.687878,0.062121,0.151899
801.721189,0.065909,0.068588
801.754499,0.031061,0.066910
801.787809,0.217424,0.098300
801.821119,0.184091,0.054770
801.854428,0.714394,0.159265
801.887737,0.950000,0.312969
801.921046,2.161364,0.170995
801.954355,4.872727,0.771898
801.987663,21.059091,2.268071
802.020971,59.341667,1.893447
802.054279,90.340909,4.064863
802.087586,55.008333,2.601887
802.120894,11.507576,1.116049
802.154200,2.693182,0.326742
802.187507,1.002273,0.537829
802.220813,0.627273,0.116154
802.254119,0.604545,0.315467
802.287425,0.155303,0.151929
802.320730,0.802273,0.214851
802.354035,-0.327273,0.100412
802.387340,0.372727,0.111618
802.420644,0.088636,0.065899
802.453949,0.063636,0.143524
802.487252,0.062121,0.037137
802.520556,-0.115909,0.019117
802.553859,0.209091,0.074273
802.587162,-0.004545,0.074793
802.620465,-0.031061,0.049101
802.653767,0.250000,0.243458
802.687069,0.229545,0.282685
802.720371,0.352273,0.107054
802.753673,0.443182,0.082533
802.786974,0.248485,0.067113
802.820275,0.300000,0.102348
802.853576,0.438636,0.163522
802.886876,0.634091,0.194723
802.920176,-0.025000,0.087751
802.953476,-0.186364,0.085129
802.986775,0.488636,0.129939
803.020074,0.686364,0.201787
803.053373,0.124242,0.066959
803.086672,0.268182,0.244812
803.119970,0.409091,0.174571
803.153268,0.072727,0.088840
803.186565,0.186364,0.055809
803.219863,0.220455,0.187920
803.253160,0.550000,0.208831
803.286457,0.181818,0.143740
803.319753,0.293182,0.194988
803.353049,0.011364,0.187672
803.386345,0.227273,0.118094
803.419641,0.115909,0.074369
803.452936,0.225000,0.105889
803.486231,0.440909,0.034242
803.519525,0.277273,0.115059
803.552820,0.536364,0.511298
803.586114,0.343182,0.096978
803.619408,0.177273,0.146639
803.652701,0.372727,0.111618
803.685994,0.018182,0.070711
803.719287,0.454545,0.394958
803.752580,0.621212,0.228406
803.785872,0.206818,0.154992
803.819164,0.940909,0.203114
803.852456,4.450000,0.479125
803.885747,13.356061,0.641517
803.919038,44.626515,1.725020
803.952329,104.775000,1.898062
803.985620,157.135606,3.740592
804.018910,72.843182,3.112351
804.052200,15.095455,0.675283
804.085489,2.400000,0.088374
804.118779,0.709091,0.263558
804.152068,0.568182,0.293481
804.185357,0.295455,0.255871
804.218645,0.590152,0.134394
804.251933,0.528030,0.075060
804.285221,0.590909,0.317369
804.318508,0.668182,0.203622
804.351796,0.807576,0.051975
804.385083,0.802273,0.325697
804.418369,-0.140909,0.094339
804.451656,0.322727,0.225482
804.484942,-0.002273,0.056625
804.518227,0.156818,0.135046
804.551513,-0.047727,0.051363
804.584798,0.361364,0.180403
804.618083,0.618182,0.256002
804.651367,0.000000,0.064282
804.684652,0.093182,0.032201
804.717936,-0.168182,0.074239
804.751219,0.486364,0.132268
804.784503,0.095455,0.086334
804.817786,0.161364,0.086863
804.851068,0.206818,0.048252
804.884351,0.418182,0.098333
804.917633,1.159091,0.263822
804.950915,0.288636,0.203999
804.984196,0.745455,0.196140
805.017478,0.506818,0.194935
805.050759,0.445455,0.102952
805.084039,0.621212,0.134456
805.117320,0.538636,0.113335
805.150600,0.497727,0.218356
805.183879,0.062121,0.066920
805.217159,0.163636,0.021320
805.250438,1.018182,0.394749
805.283717,0.204545,0.081153
805.316995,0.513636,0.189973
805.350274,0.386364,0.137777
805.383552,0.709091,0.164643
805.416829,0.115909,0.133893
805.450107,0.372727,0.085401
805.483384,0.372727,0.033091
805.516660,0.186364,0.140156
805.549937,1.015909,0.117585
805.583213,0.613636,0.251801
805.616489,1.913636,0.478262
805.649764,0.496970,0.074966
805.683040,0.248485,0.081057
805.716315,0.434848,0.145224
805.749589,0.962879,0.053142
805.782864,3.727273,0.479971
805.816138,19.785606,0.799279
805.849411,100.698485,4.774430
805.882685,247.693182,7.876031
805.915958,323.837879,9.382187
805.949231,185.711364,9.620065
805.982504,38.142424,1.843758
806.015776,5.163636,1.316472
806.049048,0.652273,0.257499
806.082319,0.140909,0.189101
806.115591,0.202273,0.114559
806.148862,0.184091,0.135999
806.182133,0.065909,0.060591
806.215403,0.229545,0.182820
806.248673,0.431818,0.230377
806.281943,0.434848,0.130222
806.315213,0.070455,0.020423
806.348482,0.022727,0.019682
806.381751,0.140909,0.051975
806.415019,0.068182,0.211681
806.448288,0.252273,0.107583
806.481556,0.552273,0.267244
806.514823,0.443182,0.149357
806.548091,0.310606,0.049533
806.581358,0.547727,0.260133
806.614625,0.047727,0.051363
806.647891,0.124242,0.037206
806.681158,0.800000,0.583024
806.714424,0.363636,0.242661
806.747689,0.234091,0.052654
806.780955,0.529545,0.204757
806.814220,0.770455,0.314021
806.847484,0.906818,0.326362
806.880749,0.752273,0.309381
806.914013,0.252273,0.164530
806.947277,0.236364,0.125145
806.980540,0.490909,0.244696
807.013803,0.209091,0.133840
807.047066,0.372727,0.195666
807.080329,0.338636,0.163427
807.113591,0.045455,0.050820
807.146853,0.329545,0.121729
807.180115,0.062121,0.049114
807.213376,0.370455,0.053142
807.246637,0.777273,0.271236
807.279898,0.911364,0.337259
807.313159,0.390909,0.203126
807.346419,0.127273,0.159933
807.379679,-0.124242,0.074273
807.412938,0.062121,0.080898
807.446198,0.209091,0.049167
807.479457,0.745455,0.232308
807.512715,0.540909,0.243543
807.545974,1.043182,0.309381
807.579232,0.661364,0.333640
807.612490,0.856818,0.124415
807.645747,0.124242,0.066959
807.679004,1.025000,0.196703
807.712261,3.478788,0.488039
807.745518,17.097727,1.474169
807.778774,71.700758,1.011390
807.812030,298.989394,7.249581
807.845285,519.352273,9.293320
807.878541,452.770455,9.744942
807.911796,130.784091,4.166330
807.945051,16.506818,1.179974
807.978305,2.268182,0.157508
808.011559,-0.155303,0.018844
808.044813,0.000000,0.000000
808.078066,0.062121,0.080898
808.111320,0.229545,0.121771
808.144573,0.400000,0.126785
808.177825,0.227273,0.130558
808.211078,0.045455,0.093707
808.244330,0.293182,0.153485
808.277581,0.093182,0.032201
808.310833,0.124242,0.049167
808.344084,0.343182,0.147653
808.377335,0.513636,0.044710
808.410585,0.403788,0.074715
808.443835,0.248485,0.103453
808.477085,0.397727,0.311362
808.510335,-0.045455,0.145526
808.543584,0.496970,0.098753
808.576833,-0.186364,0.055809
808.610082,0.304545,0.069939
808.643330,-0.490909,0.071582
808.676578,0.415909,0.064952
808.709826,0.217424,0.098300
808.743073,0.388636,0.179110
808.776320,0.372727,0.200876
808.809567,0.513636,0.450361
808.842814,0.403788,0.098563
808.876060,0.761364,0.268612
808.909306,0.225000,0.184228
808.942552,0.124242,0.037206
808.975797,0.113636,0.074516
809.009042,-0.052273,0.103071
809.042287,0.093182,0.055705
809.075531,0.388636,0.285775
809.108775,0.234091,0.292262
809.142019,0.236364,0.107373
809.175262,0.869697,0.273974
809.208506,0.279545,0.111497
809.241748,0.509091,0.172966
809.274991,0.393182,0.150871
809.308233,0.063636,0.192687
809.341475,0.711364,0.175997
809.374717,0.807576,0.145933
809.407958,0.618182,0.145312
809.441199,0.231818,0.093237
809.474440,0.563636,0.401495
809.507680,0.606818,0.306665
809.540921,0.931818,0.307239
809.574160,0.838636,0.201502
809.607400,1.181818,0.111340
809.640639,2.168182,0.521575
809.673878,4.255303,0.416788
809.707117,23.386364,1.362642
809.740355,116.179545,3.421055
809.773593,352.261364,6.539659
809.806831,576.190909,8.444267
809.840068,413.354545,12.903562
809.873305,80.633333,4.050857
809.906542,13.097727,0.801815
809.939778,3.693182,0.415162
809.973015,0.522727,0.253844
810.006250,1.009091,0.446127
810.039486,0.900758,0.290489
810.072721,1.056061,0.322719
810.105956,1.029545,0.327673
810.139191,0.129545,0.231514
810.172425,0.181818,0.132522
810.205659,0.322727,0.225482
810.238893,0.714394,0.162476
810.272126,1.056061,0.366205
810.305359,1.329545,0.174109
810.338592,0.124242,0.121713
810.371825,1.149242,0.262898
810.405057,1.056061,0.274266
810.438289,0.415909,0.170329
810.471520,1.009091,0.494035
810.504751,0.279545,0.210847
810.537982,0.061364,0.142055
810.571213,0.143182,0.184592
810.604443,0.538636,0.370299
810.637673,0.206818,0.086565
810.670903,0.279545,0.116037
810.704133,0.465909,0.140446
810.737362,0.310606,0.196496
810.770591,0.415909,0.311759
810.803819,-0.031061,0.177021
810.837047,0.800000,0.314984
810.870275,1.211364,0.558216
810.903503,0.538636,0.191325
810.936730,-0.281818,0.075103
810.969957,0.341667,0.037809
811.003184,0.252273,0.151452
811.036410,0.181818,0.071870
811.069636,1.395455,0.656291
811.102862,0.186364,0.064403
811.136087,-0.422727,0.099248
811.169312,0.761364,0.197724
811.202537,0.397727,0.119588
811.235762,0.459091,0.318855
811.268986,0.584091,0.091384
811.302210,0.606818,0.336078
811.335433,0.111364,0.152810
811.368656,0.486364,0.136117
811.401879,1.190909,0.247842
811.435102,0.815909,0.184368
811.468324,1.711364,0.714652
811.501546,0.422727,0.361549
811.534768,-0.025000,0.467380
811.567990,0.714394,0.130771
811.601211,0.695455,0.290580
811.634432,3.268182,0.467116
811.667652,24.848485,0.629016
811.700872,93.989394,2.621355
811.734092,282.900000,7.453288
811.767312,429.525000,12.379915
811.800531,300.076515,9.406779
811.833750,64.815909,2.618475
811.866969,6.068182,0.037689
811.900187,1.806818,0.333393
811.933405,-0.143182,0.045270
811.966623,0.752273,0.246156
811.999840,0.463636,0.177971
812.033057,0.634091,0.554661
812.066274,0.031061,0.103322
812.099490,0.625000,0.425302
812.132707,0.702273,0.232116
812.165923,0.403788,0.081335
812.199138,0.456818,0.109487
812.232353,0.227273,0.149033
812.265568,0.372727,0.128806
812.298783,0.254545,0.140982
812.331997,0.211364,0.142418
812.365211,0.750000,0.295236
812.398425,0.124242,0.103353
812.431638,0.018182,0.131897
812.464851,0.277273,0.105700
812.498064,0.022727,0.037689
812.531277,-0.217424,0.049311
812.564489,-0.138636,0.021651
812.597701,0.095455,0.151491
812.630912,0.113636,0.148599
812.664123,-0.045455,0.022727
